,HRV_MeanNN,HRV_RMSSD,HRV_SDSD,HRV_CVNN,HRV_CVSD,HRV_MedianNN,HRV_MadNN,HRV_MCVNN,HRV_IQRNN,HRV_Prc20NN,HRV_Prc80NN,HRV_pNN50,HRV_pNN20,HRV_MinNN,HRV_MaxNN,HRV_HTI,HRV_TINN,HRV_LF,HRV_HF,HRV_VHF,HRV_LFHF,HRV_LFn,HRV_HFn,HRV_LnHF,HRV_AI,HRV_ApEn,HRV_C1a,HRV_C1d,HRV_C2a,HRV_C2d,HRV_CD,HRV_CMSEn,HRV_CSI,HRV_CSI_Modified,HRV_CVI,HRV_Ca,HRV_Cd,HRV_DFA_alpha1,HRV_DFA_alpha2,HRV_FuzzyEn,HRV_GI,HRV_HFD,HRV_IALS,HRV_KFD,HRV_LZC,HRV_MFDFA_alpha1_Asymmetry,HRV_MFDFA_alpha1_Delta,HRV_MFDFA_alpha1_Fluctuation,HRV_MFDFA_alpha1_Increment,HRV_MFDFA_alpha1_Max,HRV_MFDFA_alpha1_Mean,HRV_MFDFA_alpha1_Peak,HRV_MFDFA_alpha1_Width,HRV_MFDFA_alpha2_Asymmetry,HRV_MFDFA_alpha2_Delta,HRV_MFDFA_alpha2_Fluctuation,HRV_MFDFA_alpha2_Increment,HRV_MFDFA_alpha2_Max,HRV_MFDFA_alpha2_Mean,HRV_MFDFA_alpha2_Peak,HRV_MFDFA_alpha2_Width,HRV_MSEn,HRV_PAS,HRV_PI,HRV_PIP,HRV_PSS,HRV_RCMSEn,HRV_S,HRV_SD1,HRV_SD1SD2,HRV_SD1a,HRV_SD1d,HRV_SD2,HRV_SD2a,HRV_SD2d,HRV_SDNNa,HRV_SDNNd,HRV_SI,HRV_SampEn,HRV_ShanEn,p_mean,p_std,p_minimum,p_maximum,p_wave_range,r_mean,r_std,r_minimum,r_maximum,r_wave_range,t_mean,t_std,t_minimum,t_maximum,t_wave_range
0,1.0196979374600796,1.0546804134055203,1.0595179447638803,1.039092416682529,1.0343067046233094,1.0186170212765957,1.0,0.9817299301919721,0.8500000000000001,1.0222222222222221,1.005050505050505,1.2250351617440225,1.1491843114232714,1.033132530120482,0.9866666666666667,0.7146087743102669,0.34090909090909094,1.4850820118638328,3.627621148337203,2.3770220315296475,0.4101453247993451,0.8915520481158357,2.1756746023118776,0.7353261538072229,1.000820856699943,0.6772442720463028,1.0336132494124426,0.9703798763001285,1.0507202083491372,0.9573061430653307,1.0657123189824051,0.8007839182890621,1.0005069004490261,1.0605622490250655,1.0119482477688158,1.0491580961545404,0.9584558277212483,0.8364656957800183,,1.0781726959917184,1.000687206047093,1.0131304518887003,1.0716441237409602,0.7401608143958168,1.221866651232069,0.7815703204076403,0.4518036549610722,0.30253427880429784,0.44361087323505943,1.097515502052357,0.8658741661772029,0.8313468291199351,0.6462430411374394,,,,,,,,,0.5741354886424008,0.6762797619047619,0.9639257406280182,1.0408515535097815,1.1505951675359571,0.7426552931749413,1.1231193624799287,1.0595179447638803,0.9995183430626537,1.0771858370108567,1.0436947187556784,1.0600267183840053,1.0865758010914672,1.0371515374980285,1.085723840086994,1.0377324875432516,1.000548098712286,1.0881229812417765,0.911528924127203,0.2979565102762277,0.3020310957619923,0.9346846846846847,0.30336128683320984,0.3005934456638665,0.2989996413975091,0.30203249273799254,0.9424182139699381,0.3038677289068892,0.30058260096771006,0.3005483897684422,0.3015675884066149,0.8895486496485387,0.3049667925436053,0.3011790248878618
1,0.9017366880422006,0.638781229312021,0.6406211502603796,0.9178898919493266,0.7083900471919711,0.8969072164948454,0.84375,0.9407327586206896,0.7875,0.8990855028869758,0.894635359414701,0.10630014959880321,0.5551506714706845,0.9700598802395209,0.897489539748954,0.9894806048652202,0.2912280701754386,0.25794109194820736,0.4504901692319657,0.31697283617619715,0.5726254088273453,0.9403683484723719,1.6422324280183633,1.1567089999216877,0.9842310274760238,0.8280774608741726,1.009776901742978,0.9890168679477178,0.993254830636717,1.0069935797249698,0.9789232416693343,0.7933414746393117,1.3079473978277858,1.095890916933056,0.9390259866019104,0.9928878447766781,1.0074158853182837,1.1487950760754204,,0.8014516766306875,0.9849654793135073,0.9869972668756088,1.0872156774655153,0.7981665869214019,0.7714042627807627,0.8954988503928595,-440.9373613527815,66.64934952346377,3.5004953513948367,-3.7195303757688554,1.1894580142260138,1.1692401736566493,0.8870662679470662,,,,,,,,,0.7222610147169626,1.0208333333333333,1.0057593519494206,1.0870893203642487,1.1527835601969108,0.5254424415339141,0.536757048994446,0.6406211502603797,0.7645832766230363,0.6437840903311123,0.6370354777947116,0.8378702372524891,0.8350355687518312,0.8407912537907973,0.8223552759683715,0.8283494638296904,0.9857350619252336,0.731479236450725,0.9001293474938504,0.46738919736774664,0.4505585337969321,3.0756340579710146,0.46258788970413683,0.4589019500649537,0.46851131165577675,0.4505696683332079,2.1035940803382664,0.46315679127863946,0.4588719240924808,0.4692646952432289,0.45104080861886525,2.02881006006006,0.46379167221386036,0.45795679848180326
2,1.033183316671011,0.9767067486923351,0.982354730378842,0.8798200565367884,0.9453373210083885,1.0212781954887218,0.9236842105263159,0.9044117647058825,0.90625,1.0361702127659576,1.027901725833855,1.2526762056173821,1.0892048843268354,1.1415587366507611,1.0085745203770955,0.7328101644245142,0.4145833333333333,3.219463421803617,4.48924276374108,3.054377374775287,0.7179080272107871,1.407866779501668,1.9620042361970074,0.7357422893480575,0.99983165041284,0.4228466836895677,1.0785086562796038,0.916816716890041,0.7113772233426976,1.2856863064754513,1.0889038712653187,0.7329014089046946,0.921247805267882,0.8334805865097903,0.988427723886943,0.7530550510185454,1.2459431327924764,0.9792532339209195,,1.107437866132961,0.9996552994838861,1.030309565881884,1.0199921946266919,0.8472728830895216,1.007136510409388,1.970648641630421,0.18823042098617376,1.1904538665002946,1.3209530820650315,0.3386211333177789,0.9015811068062471,1.112824575715217,1.108127616976467,,,,,,,,,0.3049837504934866,0.5780193236714976,0.8966762351033452,0.9870464574767273,1.0815130546698193,0.45163351401665197,0.8888036103407184,0.9823547303788421,1.0857543995393806,1.0202865482178987,0.9404467887897325,0.9047485229666098,0.7628739278447483,1.025767059380558,0.791541409323794,1.0183047659909747,0.9994652659970956,1.223036633658403,0.8925516972581184,0.1764604860485315,0.1758658243691376,0.8996857980728948,0.17269908671182554,0.17143516255980246,0.17719422652836003,0.17585339666273178,0.9153955396591626,0.17305403337595177,0.1714250346046072,0.17816249814202262,0.17586988913317436,0.8218615916955018,0.17353502469690166,0.1715900693769713
3,0.9526622558286074,0.7952137048563608,0.7947464736763328,0.8793002854873538,0.8347278376896532,0.9468599033816425,0.8125,0.8580994897959183,0.7916666666666667,0.9508620202943033,0.9486350943913385,0.39042177629134156,0.8668466036887089,1.096969696969697,0.9540707810320781,0.7285476718403547,0.5735294117647058,0.8768970423376292,0.7170869867484768,0.6048654051733493,1.2228644499725896,1.0838843972754248,0.8863627932831695,1.0825458035666866,1.0895286095992711,0.7319248952565238,0.804645085026944,1.2511728866310614,0.7838034420720268,1.1583124962310634,1.0707803898783688,0.9920285037021962,1.0324567432955583,0.8471427652199544,0.9571347563326453,0.7851772166020419,1.1667703317533582,1.023296454829535,,1.0579731623575437,1.0821520472066886,0.9616717387702969,0.9051387062729878,0.8987413683696128,1.2012633965665218,3.2986919468498748,0.7850832748087915,1.3055202666989345,1.064300093404027,-0.6431926096044589,0.976470279792194,1.0530287062523038,1.0554075180978044,,,,,,,,,0.7605401971911796,0.6458333333333333,1.125787335829322,0.8960500579384372,0.9347560076662245,0.796945231189801,0.6521179015584906,0.7947464736763329,0.9685778192914263,0.7162311040275202,0.8931346798245248,0.8205204616442713,0.726416679520852,0.8830877449736318,0.7250746707151825,0.8838942008835559,1.0748036647937143,1.1413636753432705,0.9114186566980775,0.36845879396382636,0.3617916783955686,4.01063829787234,0.3664180689622619,0.36237123145260375,0.3696205177453255,0.36176066244986593,2.6708194905869327,0.36710293562256674,0.362476370510397,0.368276512417008,0.3587288697763512,2.124614746325273,0.36457961150482926,0.3592137184380967
4,1.0633012730022349,1.2541355958228821,1.2581219352504154,1.2840392954557318,1.1796858436465651,1.0756008668242711,1.2380952380952381,1.150949745585761,1.2596153846153846,1.0513661202185793,1.0755,2.178062200956938,1.3063149540517962,0.8994252873563218,1.0295454545454545,1.1212016574585637,3.0,0.12218465948006241,1.3818143060793275,0.3404632146491099,0.08645037948070633,0.30825668659751737,3.5816079354943975,0.931084030552128,0.9704916932043848,0.743647821879627,1.279143276108846,0.736320701469003,0.9421594458270663,1.0606929071660098,0.8461439019132826,0.8820963511038434,1.0388928636918455,1.3505373178280373,1.0510623128102379,0.9803825884491315,1.021307943190981,0.7759120217767201,,0.9819743866330684,0.9633948439741238,1.0925598118654292,0.9965706375258252,0.8645939137709377,1.2594847605411887,0.6154685464897145,-0.9930683760113999,4.114055372384216,0.9772507124573038,0.019883172707593877,1.030025289163422,0.805548751700562,0.7855755559882494,,,,,,,,,0.5313412015492672,0.6105442176870748,0.9300671656313324,0.9486186620397146,0.9995997108520829,0.6256548070615375,1.643595980420536,1.2581219352504154,0.964479503132869,1.4286528001025962,1.065991567818652,1.302217181719992,1.2645871725205262,1.3402453395439642,1.2854404050233756,1.3093795837113942,0.9545168160487092,0.780289460081778,1.0076553618717168,0.4529186807753779,0.4550582642982177,1.1039765075564867,0.44673950645756455,0.4436269585804198,0.45408855757933364,0.455074086075679,1.0818802029456678,0.4472296833122069,0.4435255831852765,0.4543293810724936,0.4558489735231394,1.0957142857142856,0.4484064037215699,0.4437942035107416
5,1.0483618429517083,1.9296361389563554,1.9369823150323313,1.1993107655447965,1.840619946776326,1.0593434343434343,1.8298611111111112,1.7274775542675305,1.9714285714285715,1.0,1.0719392618820645,2.67027027027027,1.1367458367458367,1.0729166666666665,1.0253164556962024,0.7947593342330184,1.3333333333333333,4.0235334405963314,7.842670962158265,42.163061391536175,0.5135476822750168,0.8954793343378297,1.7450152754991215,0.6295870054709045,1.051175083179832,0.6428020530087515,0.7411156572897033,1.2381086393893654,1.16787795729843,0.7745953738936617,0.9175776294685405,0.6946621178269181,0.6277702662166194,0.7633361124639174,1.0836255624893316,1.1205945379401137,0.8413728044498678,0.9906581397173382,,1.0394277102986824,1.0505380128808308,0.9428284343937993,1.17561882180168,0.9663399270895064,1.1337383647870016,2.009192016261513,-0.8424940769158528,1.1178372135217156,1.3200347027213781,-17.009058188759496,0.8633743539495441,1.123248457794203,1.2188527433167209,,,,,,,,,0.6442429036637747,2.2403361344537815,1.1875606299806467,1.112921693135597,1.2338157839516537,0.5711356922064017,2.355267203456943,1.9369823150323313,1.5929829690114818,1.6692428212791894,2.157430318184169,1.2159474180909022,1.3139444240276816,1.0700306399743118,1.3280784467474835,1.1507093201057965,1.0496346967486745,0.8506214567878798,0.9183859770391973,0.3073314429788694,0.3213627594996606,1.963708492506612,0.31691243100749655,0.3141097715645646,0.3083438374115287,0.3214248105716622,1.665266106442577,0.317407232012227,0.3140841148924146,0.3113269135297014,0.32262880263585486,1.700745827795008,0.3197283719153184,0.31510841861882
6,0.96660406885759,1.440340641691594,1.446928045179515,0.9896553597781632,1.4901039404396883,0.9537037037037037,1.8,1.887378640776699,1.6818181818181819,0.9433688286544046,0.9774774774774775,2.8561388888888892,1.614234197455263,1.026315789473684,0.9745762711864406,1.2398627573300063,0.7480533926585095,5.5975321832943425,10.068217946482259,2.698277656323745,0.5519864033999532,1.402637142037236,2.533922733630928,0.6031833205971479,1.0075390341299764,0.5312693899002854,0.8783466852065598,1.11406259000559,1.0097277355542444,0.9905360155329573,1.2461671473886513,0.8969034305536436,0.634610041660251,0.5827185062834102,1.0286108321856973,0.9890129441505893,1.01071316778354,0.8618627836024031,,1.4454936688618494,1.0066376556081709,1.0623983939831514,0.7492029332058026,1.1623634933333598,1.3914373226167391,3.503678925525045,-2.0525277495005945,0.4052823440431811,2.1094006803372114,2.5910859787542444,0.7158958692298916,1.0012350470955416,1.3914801988370014,,,,,,,,,0.6928608641412914,0.11666666666666665,0.9811698717948718,0.7204286941129047,0.7893967591548237,0.8645576516515499,1.328619080086801,1.4469280451795152,1.575773708207862,1.356119613069993,1.5272832933913523,0.9182321143503702,0.9226377683317344,0.9138457012292125,0.9563101806899605,0.966776874080763,1.0057129030223004,1.3336467419103748,0.9799921095564583,0.3147162859388851,0.32238053869010375,0.26151446930256556,0.31618487669443085,0.31641638095685487,0.31581970764610934,0.3224666216756735,0.3589187327823692,0.3167815901518195,0.31657338499702725,0.31335409013227095,0.3184349235128276,0.4486498403036918,0.31341609918801006,0.31257751867198114
7,1.063567189710815,1.4467029291435147,1.455076079904279,1.0842217963061964,1.360236505270544,1.108288770053476,0.95,0.8571785693498633,1.4375,1.0344827586206897,1.0732239777465908,2.3593592677345536,1.0834948853324535,1.0316455696202531,1.0109457595954954,0.4779752835618757,1.0214814814814814,10.191833446119908,10.981677275045074,31.70052341858338,0.9280856312493675,1.3991348893348858,1.507597235735918,0.6774993604960075,0.9973545074334957,0.4446976306419018,0.8460386994463001,1.143607645269098,1.0890141291702164,0.9018825474435785,0.8490205495304828,0.6414770502364873,0.7870476825881747,0.9013383321680206,1.0510333349069445,1.0715313937216084,0.9217822548045562,1.1192448148187206,,0.925065574794354,0.9968247757984844,0.8508753771871875,0.9683002335359014,0.8202443513245726,1.2771878239919578,-inf,-0.4355627136036121,1.0815405242809863,3.982844746610411,-0.018497190850879905,1.2314802268033982,1.7095822829719238,3.204924362605463,,,,,,,,,0.6573065597220934,1.433410071180969,1.0541081216699908,0.9365253767645203,1.027501725327812,0.39877277952923684,1.6663742015829008,1.455076079904279,1.2705710772093752,1.3383816132701325,1.556060828916607,1.1452143110968231,1.1950925777970083,1.0875809344051086,1.2011670811606945,1.1140818879965322,0.9963715014606103,0.569772878912304,0.8946709397513195,0.15113987935202539,0.15498850147762766,2.2819148936170213,0.15246487610136844,0.15047554677012936,0.15175022113784506,0.15498100508407484,1.9338662790697674,0.15279790372185104,0.15052347563877455,0.1536127508356812,0.1545065583600146,1.6065535124941066,0.15339363145505175,0.15057056110249717
8,0.9752031382229691,1.1591468950600459,1.1637378540384988,1.3252755169125878,1.188621076222292,0.9948453608247423,1.8571428571428572,1.8667653589933384,1.8043859649122806,0.928191489361702,1.0033952386770553,1.5079166666666666,0.9193504309438721,1.0125395523262628,0.9760869565217392,1.6312056737588652,0.5317982456140351,0.3554215229840139,1.6025101198656688,2.558758248065078,0.2212174352855387,0.665203283059878,3.0056068674659535,0.9145079830207095,1.0277361800307192,0.6673277433830003,0.9108655895032358,1.1231650722338085,0.9146517032237296,1.099618099961928,1.0779627049826965,0.7968567299214393,1.1190296351390354,1.4572599657983525,1.0420891847436642,0.9134407293516026,1.1020681779484094,0.9954385516281343,,0.8731918558859681,1.0315570643881604,0.9043327117566886,0.9889239494502653,0.763295522568809,0.8603687705801067,2.4063608837767374,0.3953893330996991,0.9511243956449484,2.1782581059239305,0.7705290426028921,1.014599572325847,1.139772237917275,1.554192012590334,,,,,,,,,0.5308955517302592,1.64375,0.9808269808269809,0.9241573033707866,0.9588413547237077,0.6831379288577826,1.5154881256760362,1.1637378540384988,0.893631968122867,1.110372366608487,1.2329821905627583,1.3022547654669656,1.2453408664038867,1.3653734331256624,1.2361416988501204,1.357691087163057,1.0357944039664737,0.7807785159385414,1.0214958318816403,0.4165284697688507,0.425252151874771,0.9749208860759494,0.41627078002039986,0.41506958358739976,0.41770224736106026,0.4253055500604629,1.0177005012531328,0.41681605629490903,0.4149800588182847,0.4217630906787351,0.4274427591796074,1.0759033810185037,0.41958541539066174,0.41644491313448445
9,1.0176115133021897,1.2054892263769212,1.2064590263212662,1.1103131284956969,1.1846258378096417,1.0110114777618364,1.875,1.8541513141734218,1.775,1.004950495049505,1.0260534472648069,0.8052668052668053,1.3319256756756759,0.9892857142857143,1.0659100581642786,2.0138175077934113,1.1176470588235294,0.8471358845532536,0.21319771875055554,0.04793082644242916,3.98508760256396,4.08407404226127,1.0256193405490595,1.7756019940863805,0.9838076307723091,1.1173911780164014,1.011567948262567,0.9928646945275258,1.2931116840972525,0.6022516855015514,1.4932571957576095,1.3859134601332506,0.8510994289425353,0.8738594268387334,1.0202385011711006,1.1044668995709375,0.9085451789928012,0.6803200521264694,,1.1279212053975871,0.9817358010290358,1.0481916229898274,0.9753086419753085,0.9617038502124786,0.9754361449647369,0.988647409577454,2.0228336526037993,1.5454937825048511,2.1670492362767053,-0.09543788228367422,1.119720384718311,1.194962687664495,1.5914282414839178,,,,,,,,,2.2553026607632276,0.7647058823529411,1.1201227965933849,1.0125243981782694,1.0037321482504207,1.5470927156606824,1.238730095905546,1.2064590263212662,1.1750288540398326,1.2133504025382122,1.2021041692755117,1.026745152441649,1.1674058746849298,0.7957468940998697,1.1886612290981766,1.0779988868135817,0.9798173582013798,1.5061676969686364,1.137293872294097,0.9335572874198088,0.9089582535898477,3.4892369991474848,0.9179278418910538,0.9074940758293839,0.9338777552167765,0.9086019590028593,2.7005227781926813,0.9181949300331178,0.907268096197133,0.9448732454302973,0.886655098972509,1.8306276545540348,0.9068691868486396,0.8973120790893447
10,0.9399924583496442,0.46269277411247023,0.4636502911629651,0.6260805666799386,0.49223043532654764,0.9396135265700483,1.5,1.5964115781126087,1.5259353741496597,0.9207920792079208,0.951729167547457,0.5040881836351523,1.0193441180782954,1.0037313432835822,0.7856163209326248,1.1728927203065136,0.8174603174603174,0.49935039909067547,0.13175269304815818,0.03502639804895157,3.790200720224937,3.6023355512340656,0.9506517266364576,1.8465023730185044,0.9787903996751193,1.3063633428491253,1.1094456706094125,0.9375666676004497,0.8059895592935433,1.4517586975292711,1.4542805813634807,1.0132188958604298,1.6232871743539783,1.221624058098991,0.9095164756673187,1.0291571695010915,0.9724478610516123,1.8469388805740312,,1.5802485519147305,0.9932390412228437,1.0092242565139755,0.8202363322226336,0.7414383553700956,1.2269956839410499,0.9937212462998011,1.1482721769965116,0.34766784981265264,0.7145492093539443,-0.232041882507153,0.938264919356229,0.9967459710928012,1.1389674294083212,,,,,,,,,0.9890659278089812,0.9269641495041953,0.9329152798300151,0.8265373743128377,0.8803382663847781,1.1807104978228105,0.3489745837356505,0.4636502911629652,0.6160483842754676,0.4883898086858143,0.44893728976201064,0.7525909076418296,0.6756513009970807,0.9067962177654227,0.5934810691683914,0.5768698713264611,1.0079590531624376,2.1425835965230386,0.9208193647972022,0.6431555571857246,0.6313766448891376,0.3936815232422083,0.6376553081559848,0.6400546597911329,0.644240171252838,0.6316230903906501,0.47262737262737264,0.6382878547541628,0.6401672776691543,0.6258095962350145,0.6216741591673478,0.5720862898621646,0.6293398914905486,0.6301709470180828
11,0.8929130065084364,0.24068148436275094,0.24158210728645346,0.4978582803294147,0.26954621448455496,0.8867924528301887,1.0499999999999998,1.1840425531914893,1.1223837209302325,0.8928571428571428,0.8904109589041096,0.3721951219512195,1.073261065943993,1.3906845313690628,0.6540945185566093,0.7580804516584332,0.14751552795031056,3.539927086330865,0.5590539048314467,0.017065602992198312,6.343967430795244,4.853614360586862,0.7653363249014339,1.2108174261736724,0.9927725511555963,0.6433945397008136,1.645492582419084,0.641812311588448,0.6549721410072031,1.6614341604707392,1.9107907828465254,0.48247158734145673,2.569627649196229,1.5946048402948592,0.8299188939854976,0.9376943524650039,1.0590309612630868,3.5030127754686906,,1.8644019353697638,1.0085506882951378,0.9381118782158282,0.7371614328488041,1.3732714363031897,1.2286255262792862,0.5844195947151641,-4.442825199642966,0.04953033563275354,0.2216874183934503,-1.8435087522765696,2.0360381973053827,1.2442453664651285,0.6152221053046862,,,,,,,,,0.8554091643123043,0.19230769230769232,0.8630510534696261,0.7304772530031347,0.6867862168790961,0.48299430111901726,0.14996347656442063,0.24158210728645346,0.3892114269556822,0.3098946809783335,0.19359985906247623,0.6206275279408935,0.5020746954215725,0.7992450179318092,0.43250323998897355,0.4593346341251926,1.02476059261961,2.2970045616847745,0.8698016792820011,0.3390680361279612,0.3363402138329843,0.46111111111111114,0.33608845230110135,0.33584451622693867,0.34021947519308093,0.33632771106093007,0.6230546186164863,0.3366735849109034,0.33586636024629263,0.3413298106026902,0.33365642085878194,0.629043499158856,0.33464949869592786,0.3333734173280414
12,0.970414075627422,0.4564325390151591,0.4589316527695639,0.6417682356243202,0.470348377199879,0.9638432835820896,0.611111111111111,0.6340366755477009,0.617451690821256,0.9868421052631579,0.9563981042654028,0.7826086956521738,0.8811721273650207,1.3741258741258742,0.7245590760106133,0.6333333333333333,0.29285714285714287,4.386398272222418,4.515574792289893,3.537971168379121,0.9797966948098163,1.542929348775116,1.5806697180236817,0.7001809394910012,0.9839676052047592,0.41517606744788677,1.4124400801702608,0.7133944283636873,0.7942347376705594,1.2331896517506045,1.5154332386603269,0.8191495394234483,1.48139187097745,1.0071356703891365,0.890488856934603,0.9087691731897293,1.088859211885752,1.6418740952318311,,1.3574246276608128,0.9896770848471541,1.016284762467484,0.9235647347464104,1.2016409345868282,1.474117654000755,0.29417168495366264,-0.7986876565656851,0.5157977231904687,0.853928221158171,-1.8489664882619246,4.0797887927125185,1.2182626886584902,1.0100108638058478,,,,,,,,,0.7879256018290075,0.8329889807162534,0.8617065352022384,0.9442231075697212,0.9198333509205955,0.7436937104694229,0.3120143892057868,0.4589316527695638,0.6750408313745737,0.5453996372156948,0.38762999472673165,0.6798576598770154,0.6056246252978132,0.7546446555942218,0.5908354362779416,0.6466369652352666,0.9949850482384023,1.485688791054094,0.8522741477062641,0.167460242476159,0.16483713305540168,1.4694789081885857,0.16382341381544704,0.16166323534747373,0.16817491665902864,0.16484391290650274,1.3487534188933306,0.16419344728859028,0.161735679271237,0.17008333125107256,0.1659867899849785,1.286415158179665,0.16521657680217117,0.16230771407116049
13,0.9111432445193881,0.3586206662683884,0.36007097795220144,0.880965929729583,0.39359380316324055,0.8993055555555556,1.75,1.945949169162272,1.6527777777777777,0.8914285714285715,0.9381517263870205,0.9305555555555556,1.7531597114086992,1.3484848484848484,0.7437596899224805,1.2951492537313434,0.1833950046253469,0.3621121376541062,0.42889517037380526,0.0128217325402853,0.8486261467553511,1.3080556335435878,1.5426755432492358,1.303674200168849,0.9961160204792399,0.702528535157208,1.4677114978054864,0.7327785241093658,0.7244674854957831,1.5789662137961096,1.8133801069810191,0.8089968515922885,3.2060670123513333,3.699744453670264,0.9181460944323518,0.9969535398813316,1.0030150351468476,3.028328917928109,,1.7177144850407595,1.0092759461226026,1.0047099848044727,0.7078216456148989,1.3397386316678999,1.0354713320698559,0.11608646314654095,-1.3570989814072103,0.15228513230650192,0.22412413924405683,-2.4074433800270363,3.15911133242248,1.146477484344364,0.5520844460082706,,,,,,,,,1.1298084962277952,0.13191856452726017,0.9676961779130728,0.7065388028120947,0.7579489721381614,0.9753390105699407,0.4156313261205977,0.36007097795220144,0.3119590915217271,0.43623043804661915,0.3082188979737861,1.1541036223917382,0.9823319674552371,1.450206840542057,0.7999216663391433,0.8023509244109412,1.0225915888932553,1.3825373881568932,1.0229990583966053,0.3527428335414283,0.35312483607799716,2.4546165884194053,0.3569759814492677,0.35351823665382076,0.35397429315446605,0.3531170609986267,1.9199984197218711,0.3576307436807366,0.3535779754851357,0.35384473519359966,0.3477491555675496,1.408098180472109,0.35555758258347636,0.35103579026517223
14,0.9828583793691605,0.24875129922423256,0.25005381986694786,0.4901279154774185,0.25308976982621706,0.9856459330143541,1.0,1.0145631067961165,1.2053571428571428,0.9769607843137255,0.9835680751173709,0.384933586337761,0.7082727272727274,1.4561310782241015,0.7220421952564811,0.7829034391534391,inf,0.3550163050123526,0.33291263125872883,0.03704927285734427,1.0677454166978684,1.5356934472542945,1.4384465648550155,1.338580916992334,1.014713218727275,0.6556239218919685,1.3894239625667877,0.7818634899476877,0.7208526844825371,1.5455049072608222,1.9268624816873674,0.7123645777264791,2.6070489150496785,1.6993457435062558,0.8279389537173949,0.9568700596282673,1.0430629892492882,1.7321842563379124,,1.4518694648083532,1.0261670996128878,0.947446128108742,1.026262890927271,1.4107660543909022,0.979293486655605,1.049974660168197,1.7615048247913072,0.08191840695754865,0.13476446126786484,-0.2162852423340279,1.4469796390593133,1.0109913501723031,0.3869500821044538,,,,,,,,,0.8720897794264664,0.8272765246449456,0.8865402000024939,0.9852814527467687,1.034554143206274,0.6570848671805083,0.16301153157393647,0.2500538198669478,0.3835895995960427,0.2947084642181046,0.22117438977054033,0.6518529261348855,0.5534146070767252,0.8102520493272778,0.47278471504104724,0.49348574003432055,1.037764726397543,1.0194181295232063,0.8613178325472294,0.198326810529512,0.1979820728593772,0.6537446286065071,0.1959960125290932,0.19494437800678768,0.19908651141524386,0.19805114317632058,0.6961435623200329,0.19641417820298535,0.1950115832081668,0.20045970173881145,0.19806926225545834,0.7918325526932084,0.19734761809376214,0.19512333543665009
15,0.9695033720956285,1.1236237168182086,1.1250885688204364,1.3256452620660748,1.1591304628836245,0.9555288616783559,1.1217948717948718,1.1740657392253135,1.125,0.96,0.9754901960784313,2.021412037037037,0.848766990291262,0.9137931034482758,0.9931818181818182,0.8128306878306878,0.8052631578947369,1.9899782261785968,1.3353900303774426,1.6802880265555231,1.4916401752677022,1.4857797950306524,0.9966431302832081,0.9306159802941802,0.9158014928341924,0.5875865832235947,1.1309103944728858,0.8339633675920466,1.067640585672851,0.9477295966927384,0.9198144394662825,0.9054357515097672,1.1370925100930944,1.4438447724184513,1.0377743749977113,1.069391829383469,0.9419685675794655,1.2232540636452813,,0.8393234309932742,0.9098705057936086,0.9909065400820851,0.9621575873976642,0.6111118959484942,0.8147234435776675,25.92645252430768,0.2117572203372485,0.8532737017267259,1.2859377890771393,0.29969219598899266,1.0491188541029146,1.4451385975828577,1.258412618738488,,,,,,,,,0.6547338572050193,3.0667701863354035,1.2014508669176776,0.9548513471290889,0.9854099574428363,0.6724945082544613,1.4327020120725869,1.1250885688204364,0.883808602743535,1.204283887237867,1.0167032730255212,1.271384602382884,1.3138940012790945,1.2371540138865282,1.2965559594460832,1.215233079754146,0.9030386982542391,0.571748977243935,0.9702794015433067,0.31565482219032703,0.3121139338977586,0.5857843137254902,0.3107239682699066,0.3095924663749471,0.31675132412990425,0.3121250923578468,0.6311413454270598,0.31127345649508986,0.3096995361968139,0.3165980934857586,0.3103403033776586,0.7137537239324727,0.3109000113666417,0.30837207163045954
16,1.004055701024659,0.676479023784751,0.6801584398629505,0.6774807388759472,0.6737465284947324,0.9837639965546943,0.8660714285714286,0.8803487196765499,0.5423882286361064,1.0544502617801048,1.0009017045202278,1.3888888888888888,1.1705101327742837,1.1009196369537777,0.7876489380939943,0.672492668621701,0.7304921968787514,12.7878763336251,2.595906275560213,1.8199700476636687,4.926261335913807,4.174578980566325,0.8474027585858637,0.7691410831004276,1.0080677773509445,0.6067074774374362,1.1085299376102244,0.9380074690513963,0.8793381336057801,1.1765785254358976,1.4229983364642478,0.7785405405491266,1.0048821139335744,0.6868101092882806,0.9344008181703531,0.9449166917337293,1.055779714333101,2.173083085607797,,1.3856329520283204,1.0198618195052862,0.9145306546348151,0.9100122232323182,0.870252309878643,2.3601693368761696,1.123435881955295,1.1096468737823848,0.5437498869941144,0.6960464884541371,1.7522890857299274,1.604332502487996,1.3880482184354346,0.8539738479442749,,,,,,,,,0.5814251550326226,0.8008255933952527,0.9586555083397978,0.9079428956631106,0.9036705591327441,0.8577730882587198,0.46487554816261323,0.6801584398629507,0.9951435715975583,0.7161369682453513,0.6587737509964937,0.6834755075374446,0.6408886444774131,0.7413654521794768,0.6630999983328003,0.700948245775913,1.0309589266602166,1.03789863220449,0.8709513059435958,0.23057386486790651,0.23134157319128051,1.4089513462446859,0.2358432766094322,0.2332230606408029,0.23145595840897915,0.2313674073158206,1.3442725752508362,0.23631256256458577,0.23320003378637236,0.23277301819335305,0.2315952046870457,1.1965995235001081,0.2367698846161313,0.23290051125853523
17,0.9123051803473357,0.26393370071477396,0.2650262485707035,0.7071756281437123,0.28930398214806696,0.9047619047619048,1.4583333333333333,1.6118421052631577,1.8295454545454546,0.8916256157635468,0.9316625155666252,0.40051085568326944,0.9778082191780821,1.3282442748091603,0.7230266569857898,1.2425595238095237,0.23969344608879492,0.42307488248741676,0.4260573451734033,0.015964029143331313,1.0092576817237062,1.4683889232879703,1.4522229653832732,1.22460445175447,0.9755979855515621,0.9378395012813778,1.1930505079600375,0.8888995803308439,0.7472056585332141,1.3721274425675016,1.6399247475178012,0.8853962106017736,3.2556073542418806,2.8078015233216416,0.8689849545814665,0.920500872109427,1.0733759832787446,1.856303578983741,,1.5252838335315677,0.9880311791231332,1.0218427436444246,0.9496364506245929,0.9387789105443549,1.1336360932992828,0.6606684681908317,1.356185258707271,0.1021192116504692,0.8853641539084844,-0.6542651730727289,1.943339375973184,1.0436033074119941,1.5222764152098809,,,,,,,,,0.7410185084040952,0.8898869246695333,0.9036157444085833,0.9473755656108598,0.9271048291292954,0.8967431888578694,0.22854486486860964,0.2650262485707035,0.3073331691290386,0.28953554207109944,0.24971066309274867,0.8623963714649794,0.7453090724955092,1.0101032219641368,0.617883157273619,0.6672130460816694,1.000528552509351,1.8605673878559825,0.9170912740958379,0.3378265038220428,0.3293964880231851,0.649746192893401,0.32712184722334614,0.3257742014509061,0.3389537577845548,0.3294118745563113,0.7012748002513691,0.3276927942992891,0.325823278695477,0.3379874895555871,0.3264765320367745,0.7684170821306744,0.3248675235051597,0.3220215007237121
18,0.9839654773305108,1.1157754709838419,1.1207084866236134,1.3481073538464425,1.1339579453650452,0.9732620320855615,1.3333333333333335,1.3699633699633702,1.1842105263157894,0.96045197740113,0.9924874371859296,1.0221809826793922,1.0869480551092936,0.9696969696969697,0.9513618677042801,0.8963533368737829,0.2882447665056361,1.692120146137662,0.6692107965982941,0.4142498647771745,2.5285443081539904,1.725778901920025,0.6825200223767507,1.1260921713924632,0.9880156941325635,0.5125558826451309,0.9369759678129009,1.0652159356851052,0.9876066261369316,1.0120801587519384,1.041090091008591,0.8103005133383779,1.2176967651383916,1.6617644846433264,1.0409724564602099,0.9803357646669568,1.0193188822915005,1.3534375032693824,,0.9140097109145497,0.9882004537255007,0.9738732819097093,0.8588007736943908,0.8337578409349256,1.3398012990433457,1.283124492593715,0.2893582319367382,0.17675135885612075,0.18739844404666411,0.05698817993568064,0.934224830847241,1.124623505589072,0.5030479327549966,,,,,,,,,0.4352209155787552,,1.1114624505928852,0.8362831547185029,0.8828042328042328,0.6509917016120522,1.5294091302187598,1.1207084866236134,0.8212242071679664,1.0847407602543835,1.1565966083672665,1.3646793481613981,1.3561935592605812,1.3728913279404666,1.3160492149837948,1.3419571685291265,0.9884312479242257,0.7745871419332505,0.9699160946185321,0.3069763790033695,0.3072744749223545,2.1770786851108137,0.3029880086494987,0.2999625895105404,0.3078736362320221,0.30726653781841434,1.8434782608695652,0.30343215260996836,0.29994486669554604,0.31024248021053,0.3089179596539491,1.5447775175644027,0.30531968803336973,0.30093324897184437
19,0.9752503484323963,1.2707500953001571,1.2730665110111086,1.4444953132366765,1.3029988387619849,0.9748677248677249,1.25,1.2821889360197951,1.2253521126760563,0.9566666666666667,0.9851485148514851,0.9757386685917598,0.9841162862711523,0.9393939393939394,1.1025641025641026,1.0996168582375478,0.75,2.548595878576445,1.4074675483257881,1.5664251575566177,1.8107673494662664,1.4835958218262715,0.8193189581738461,0.8950794624630729,1.081551042764327,0.6896520022063686,0.6874274585291932,1.3505716399823449,1.0339129933294537,0.9624806974225344,1.0403139531423267,0.8336824274955966,1.0928951699609732,1.5205740981186193,1.0553150045533402,0.9866526153566608,1.014883671340246,1.1391594393295126,,0.8068135143119748,1.0740109443667132,0.9036749231958805,1.0723684210526316,0.7228720039906931,1.1220304752181585,2.7622004221209173,0.1949941220671555,0.33935632483515665,0.764898247212568,0.4725454002873065,0.8733564800627033,1.2751657702405033,1.043270404300567,,,,,,,,,0.8020112408895781,inf,1.1421043753107465,1.0612192321693596,1.3666666666666667,0.6207030629243739,1.7712505918282342,1.2730665110111086,0.9150023105841284,1.0570912762012619,1.4816875873220183,1.3913262929490002,1.4147154719896626,1.3649670421567497,1.3644863341242417,1.3838688512154174,1.0667405217500547,1.110785998017235,0.9892766858925293,0.45713023160698546,0.46812869014116265,0.31339285714285714,0.45886501509129485,0.45963199409544087,0.4581952462448182,0.4681126124607258,0.423444976076555,0.4593751400465326,0.4596007389164166,0.4629051633096578,0.47093242150348774,0.5608072225172597,0.4629859877566621,0.4621729386465604
20,0.9400084717073326,0.557858930219851,0.5604262705232173,0.679424642895718,0.593461598496676,0.9709244342155734,0.7061538461538461,0.7272836538461538,0.6941941941941943,0.9513513513513514,0.9174311926605505,0.5442520442520442,0.8919540229885057,0.9700598802395209,0.6788732394366197,0.7545865949119375,1.5,1.176218142100364,1.7633946786320367,0.5218650299066802,0.6670194425706657,0.9293927805075884,1.3933519163126085,0.8524970400837513,0.951966899772897,0.5418748971134514,1.1575326025242072,0.8976436199282511,0.9794871132253096,1.0253951321590518,1.0463229302184063,0.845762699799826,1.1654140308507883,0.761165204443145,0.9133443118244686,1.0092512968128822,0.9897065307959008,1.2119371374050838,,1.1091649449709402,0.953147780760575,0.924671400212224,0.9820754984542953,1.1351614648137698,0.9994376779440405,0.7013238950778033,-1.4526885823241398,1.9338951933272341,1.0448085319349345,1.4335396186794664,1.4046732652241956,1.1625644087304239,0.8940453614594254,,,,,,,,,0.9913429524266908,0.0,1.111278777524289,1.0247820239660306,1.0061714454593107,0.785896339574683,0.3660303969793267,0.5604262705232174,0.8580642707547795,0.6032880783415875,0.5312633993785454,0.653128560729096,0.6463665895453449,0.6613280939472528,0.6409108762932105,0.6346688172953524,0.9535042674386616,0.9252625513704855,0.8411767918468855,0.17623439110937833,0.174815787317409,0.40724815724815727,0.17413936545769343,0.17384941831237788,0.17684973335028925,0.1748147403108316,0.5486111111111112,0.1744436952124073,0.17383718312395877,0.17587660464461347,0.1727051905829179,0.6833594217577459,0.1731071565919765,0.171909385249409
21,0.9581961999538989,0.9329618091129261,0.936274188898083,1.1065808586897448,0.9736646932619992,0.9376683414482545,0.8958333333333333,0.9554852274066219,0.8388066604995374,0.9560439560439561,0.9419600380589913,0.6692061569588299,0.8772662644633218,0.9754601226993865,1.0578512396694215,0.544547803617571,0.5416666666666667,1.0720295606541617,0.806334063425264,1.066930828040221,1.329509663283752,1.2024668313844487,0.9044439163971925,1.069736287037963,0.971219056975285,0.64274519236028,0.9636515673611175,1.040840327784281,1.2376336853757595,0.7804291153607104,0.9395490841043757,0.7982687897602851,1.154981123128454,1.2489705535425493,1.0011522797395767,1.2013911252135347,0.8087468471230921,1.2434121787973782,,0.8926013756728541,0.9693791680239935,0.9477618080760657,1.0240560994912262,0.6781649867279126,0.9561622406789161,9.442316294734084,0.7212875308665079,0.3013120193023289,0.501924335728753,0.8999404121381903,0.9747280325178809,1.4034971531269353,0.8582633822386886,,,,,,,,,0.7443611113141159,3.020833333333333,1.0876012457724347,0.9606729992249212,1.2336759509934383,0.8118778972276621,1.0124654615340347,0.936274188898083,0.8658165691810233,0.9193962374030316,0.9555129998214213,1.0813772675172912,1.203021235187487,0.9553091363344413,1.1643737410574924,0.9553367287042096,0.9677603952781222,0.8983204901097587,0.9125496026022474,0.37081526791166664,0.36297475036174953,0.9091117216117216,0.36675723567631424,0.365414905132903,0.37179676402570266,0.36298419339812743,0.927536231884058,0.3672828576150341,0.36545157393590566,0.36849716767355,0.359407305813708,0.9405707561047367,0.3641035255330609,0.3613453339649455
22,0.9750802145528552,0.9592907468295664,0.962417696353769,1.1973590244348953,0.9838070063491859,0.9613259668508287,1.5,1.5603448275862069,1.5375,0.9430604982206405,1.0066451862218786,1.0018809849521204,0.8790954532111289,1.013793103448276,0.9311740890688259,1.0075585789871506,0.2650375939849624,1.214259343984834,1.3536501283045403,1.422122701836869,0.8970978634432238,1.0296090260002932,1.1477891759067598,0.9336158128316593,1.0080695748495898,0.6118058053843716,0.9214787312438023,1.057991996994863,0.8474503816870933,1.225881158054135,1.0230101342889424,0.8123529803628562,1.2369851092761777,1.472612857527893,1.0128485430310432,0.8584243512875357,1.196230084791515,1.1518905241870714,,0.861022146699415,1.0085245574403623,0.9178791262961792,0.9264171854367101,0.979776472083582,0.8003769743532791,0.9275214100518795,0.39681977379555494,2.458737011944935,1.3010565280650588,-0.6660516661327862,1.2690548071878145,1.1989615215718699,0.9800635624877494,,,,,,,,,0.5544693718349976,0.0,1.0743865802900106,0.9871220930232559,0.8746666666666667,0.7872320942100925,1.14574647523462,0.962417696353769,0.8084231029847037,0.9238580749632979,0.989925956781031,1.190486568903643,1.0959270897798166,1.3181009116379059,1.0850959316219433,1.2809271217053357,1.0088059831401723,0.8143212747104991,0.9472565961085454,0.4484500994897913,0.4373803565799142,1.0397350993377483,0.4463306195507824,0.4437324209122278,0.44948155176787585,0.4373537362886226,1.0380434782608696,0.44684164984136143,0.4436872933944209,0.4525841515128502,0.43879590365757354,1.0263205174272367,0.4478271416121933,0.44367606123869174
23,0.8491799896854049,0.30184453392539484,0.30284424479376326,0.6319240746332433,0.3554541293857136,0.8667641325536062,0.6214285714285714,0.7168618874638595,0.5645161290322581,0.8850574712643678,0.8312796208530806,0.16794455292216537,0.43536077705827947,0.8846153846153846,0.5517241379310345,0.5447301702281782,1.1666666666666667,0.2561375975735109,0.6859160532925912,0.3024507732216849,0.3734241224123159,0.7775237694195851,2.0821498269666825,1.0835140164153212,1.0061846559284815,0.6549394328698342,1.2860620400865876,0.8639588089241204,0.9001620534263988,1.147548433266375,0.9794647717057051,0.7103684005036277,1.8536635690018697,1.0405836437698497,0.8460584079396583,0.954375112843175,1.057236680711532,1.036155049601526,,0.8016157479082902,1.0094835694404374,0.9215144242941843,0.9972006807325612,0.957019845384958,1.0261941340669152,0.8580755635918993,0.3438908872994353,0.5997879994569153,0.8811501798634833,-12.34420786272105,1.1024180285025342,0.9987896684815418,1.008651397378444,,,,,,,,,0.5823201709257951,0.0,1.0678212851405622,1.0460627330554946,1.0278532608695652,0.5628890086725374,0.17000666538701242,0.30284424479376326,0.5394767340053314,0.3434734702000395,0.28151739168127365,0.5613663070308573,0.5326053906184967,0.6013551455094195,0.5193141380292285,0.5465842046710347,1.0111826757748261,0.8177511882665192,0.8463000079861718,0.32522251041559946,0.31451245715325016,1.8034774985388662,0.3198343446753847,0.3180439805264461,0.3260986080808526,0.31444067445879526,1.5274725274725274,0.32028579664786067,0.3180195977307891,0.319198997236686,0.31272500097974376,1.3036715961244263,0.31867745259711655,0.31554740828617717
24,0.9667277294891626,1.764049038454757,1.7711666320729735,1.10595007316262,1.8247630482130828,0.965846994535519,0.911764705882353,0.9439641415696256,0.9044117647058824,0.9710982658959537,0.9564102564102565,0.448987246811703,0.8910094428498061,0.9577922077922079,1.103448275862069,0.7005012531328321,0.3988603988603988,3.0620678888555375,7.918208262942304,53.652439752077875,0.6551884368853417,0.9572015863332044,1.7684960211480791,0.617708027141367,1.0030690766720787,0.68184654298392,1.0095669346458853,0.9883764226415075,0.9721388510567985,1.025229799582415,0.854064006474758,0.772192504607921,0.7069308072388348,0.659138560170026,1.036516385995398,1.0336942002220368,0.969051717185728,0.9031255033493042,,0.8387713569808795,1.0089161555206863,0.9905662928701597,0.9710811372269708,0.6935719496673293,0.8083261605592228,1.327863844035371,0.8267493427953919,3.265091015659983,2.6664599246487333,1.493564300844366,0.9957736745016128,1.0616802101493807,1.5926969188790214,,,,,,,,,0.5478965819682479,5.9624999999999995,1.064547576031316,0.9631782945736433,0.9598827689103433,0.5378978091012575,1.7197169255882812,1.7711666320729735,1.8264756260308634,1.8291846011619564,1.697458107358715,0.9510564590609702,0.9357534105320611,0.963742219271697,1.0921092801804477,1.0562753746195686,1.0140884336197438,0.7948408256994703,0.891532480201422,0.3223996755118443,0.3161170356342633,3.369642857142857,0.3160531363506509,0.31259129133928487,0.3233133119963142,0.31608331900352793,2.5402298850574714,0.3165031913375069,0.31255107043634583,0.32370174187062417,0.31445139970937486,1.8763655280041616,0.3173977590553375,0.312561284523615
25,0.9172547497214313,0.689038897182436,0.6917996949810906,0.9774821859153711,0.751196870217021,0.9226804123711341,1.0999999999999999,1.1921787709497207,0.975609756097561,0.9010989010989011,0.9152380952380952,0.6913295854472326,0.6829228287530298,0.96875,0.7092862702943139,0.7351656415991055,0.3709677419354839,3.299669870965075,2.9391570245728045,2.1267847541019442,1.122666333542726,1.3158151955497164,1.1720498796163654,0.7733302585196947,0.9392413140741358,0.45334942831470526,0.9655235131610098,1.02902482478056,0.9510547192432012,1.0685437159980342,1.0692890892261804,0.701437302577715,1.333166724678277,1.2295551423424396,0.9591647621968192,0.963196832441922,1.0481464256599116,1.3690094670580344,,0.772327072748176,0.9343500659757227,0.8469218148721219,0.6701784850369755,1.0992257103605556,1.1550171131312128,2.1795110904811628,-0.35945906590883947,0.3037146900860089,0.08719699562379601,-0.9201541563540707,0.860166961653809,1.1412443169462811,0.20358198168317887,,,,,,,,,0.7892481476772155,3.303921568627451,1.2079133463961313,0.7289173140434353,0.6889337661514954,0.5630703353867257,0.6380349159677743,0.6917996949810906,0.7500951430565627,0.6804562175244872,0.7024737032369222,0.9222820983788853,0.8994263355254415,0.9533649208122081,0.8787413778775587,0.9166744029260413,0.9292149956872449,0.6597535756515664,0.882698838456149,0.15809689095203372,0.1530723000930059,1.062874251497006,0.1541087382114144,0.1525980489747163,0.15866205240774672,0.15306443818698784,1.065326633165829,0.15438108484005564,0.1525766217736236,0.15771266540280304,0.15158102540750107,1.041958495460441,0.15339061414594785,0.15106059012510134
26,0.939713656458278,0.7807024079129997,0.7833285805207069,0.8611922283222724,0.830787551662725,0.9315789473684211,0.9166666666666665,0.9839924670433142,0.9787234042553191,0.9537142857142857,0.9570731707317073,0.812307849969256,0.8919007724301842,1.0064516129032257,0.8477873477873478,0.7355293775450844,0.3888888888888889,2.1828081678067655,1.4053736755777635,1.2840212682956682,1.5532125007800985,1.247541907857781,0.8032111540271138,0.9295160684368803,0.9970340825598436,0.6269393521113424,1.0350597785191515,0.9715736150521543,0.9264860667081349,1.0834674408562686,0.9791189257705218,0.8448361243703422,1.0386089754623864,0.8449214639285975,0.9587601623366488,0.9352673141043619,1.0713037199661863,1.1099348749747207,,1.0013400039750742,0.9967409264793143,0.9155217439805219,0.7479473560835985,1.2380399748875712,0.9503407279267759,1.0714936497253609,0.876330065940773,2.6496290200511936,1.7103163995833839,0.49686071315894487,1.162129590149735,1.2078142217425119,1.0957368740316404,,,,,,,,,0.43529279395857584,0.4444444444444444,1.0387475688207368,0.7275568366881637,0.7607088916738969,1.0040346515887633,0.6372455904967897,0.783328580520707,0.9628998547386491,0.7969445111414191,0.7720987723366959,0.8135112467050798,0.7829715897143574,0.8466999574405751,0.7840680619517533,0.83916445638498,0.9964165667622,0.7383179524992483,0.9062446835842973,0.43313127703264087,0.42991657536508654,0.6138904573687183,0.4194670854883696,0.4182459778049168,0.4341729773970518,0.429903950647608,0.6666666666666666,0.4199718629944267,0.41819717695787234,0.43241494212097115,0.42837424085336273,0.73054355684915,0.4183651032008191,0.41556990653696285
27,0.9744387899027024,0.9335732826890831,0.9332272938812327,0.8630734369424857,0.9580625200504388,0.9881796690307328,0.7672672672672671,0.7764451053924738,0.75177304964539,0.9912888635747448,0.9502127659574469,0.9560201874549388,0.977942883677734,1.058139534883721,0.9422382671480144,0.7520604395604396,0.40625,1.4295773223588188,1.060654117312601,0.769369325895215,1.347838070090857,1.2759791432614802,0.9466940831935612,0.9802713073134397,1.0635540719208718,1.029564304674573,0.9272174377365667,1.0906005377034362,0.9664867295760725,1.033476017671362,1.0958932061293636,0.9482426766464941,0.8722287268908812,0.7099733671888835,0.9757512960923449,0.9624162975920028,1.038802657054684,1.0860795692273784,,1.040981717136788,1.0663175980131765,1.0258336435609698,0.9349693842064734,0.847374319510724,0.9645582210823173,1.565428989419948,0.11513405474393601,0.18992842936312496,0.2744017611496601,0.13901464798067076,0.7259551594435534,0.9801448869795841,0.5644771251069126,,,,,,,,,1.3866106936582219,,0.8646190204288795,0.9000607328429717,0.9775,1.2986837344393711,0.7596334404464574,0.9332272938812327,1.1464948707594202,0.8993735341711167,0.9753832422482556,0.8139795493990125,0.8002238158217199,0.8274915436271959,0.8173005791278363,0.8491138915260728,1.0690178207203376,1.215334424715915,0.9779734875149765,0.8887184795577784,0.8894195177045345,1.7251908396946565,0.9076064489458453,0.9012319961909296,0.8772555338647587,0.9016262646363407,0.4727272727272727,0.9077031885424648,0.9119747649089394,0.8780770043497814,0.9015442956278841,0.62326366107414,0.9080422677449198,0.9119554867888597
28,0.9832001122810814,0.9856648428381509,0.9881517790842493,1.0096619748650126,1.0025068452762391,0.970488201971542,0.7275132275132277,0.7495968787704521,0.75,0.9909009119535436,0.9859894921190894,1.04125459405279,1.0136798905608755,1.013935443823712,1.0155038759689923,0.731829573934837,0.8888888888888888,0.9253618758142894,1.2710797284723037,0.7631626657966821,0.7281403809425062,0.8495101358674861,1.1667948690925196,0.9193832115332106,0.9891377530077071,0.9511081951075966,1.0028947188683373,0.9962903347972922,1.0805254386180358,0.9430532929522115,0.8950664645358243,0.699640214927397,1.015524671954354,1.0190639806870572,0.9992229745505936,1.0633581834134014,0.9506287599929792,0.9782405405679598,,1.0357884525098198,0.9887903990947811,0.9848902712287784,1.0795774647887324,1.0949115621152101,0.9708536531048146,4.180230852066159,0.8624558619565506,7.042795513349493,4.27171826800587,2.5329736763378374,1.1491158761927176,1.1888990320276491,1.9074743273216281,,,,,,,,,0.7890025031638654,inf,0.9757114113250933,1.0289901242433896,1.2132352941176472,0.6369053922417729,0.991599927212649,0.9881517790842492,0.9847164049586852,0.9896067927217919,0.9863479423918313,1.0034869480118582,1.0430888259348872,0.9744921755979691,1.0322361744483448,0.9760006677453719,0.988489811814812,0.8772783455291244,0.9361610361078458,0.6272011143863698,0.6386373712792794,1.739795918367347,0.6340668797639537,0.6296082949308757,0.6282156987319705,0.6386056455099585,1.5648854961832062,0.6346075141196693,0.6295930543554293,0.630179878412399,0.6386492384479294,1.3655984967751764,0.6356086028232812,0.6296494404213298
29,0.8731732185340432,0.5595972209527689,0.5617976317109439,0.7014299346308959,0.6408776736101318,0.8711111111111111,0.6166666666666667,0.7079081632653061,0.564516129032258,0.9038834951456312,0.8655737704918033,0.48350609201673034,0.8888888888888888,0.8700326466283913,0.7314682126107348,0.5098039215686274,1.4228571428571428,0.5674424918814711,1.4318145028887836,1.9434327271823169,0.3963146180748678,0.7083638240486552,1.7873896488428784,0.896609514249253,0.9778980898455271,0.5402391040093986,1.2973536057840405,0.7330507489599669,1.0025342434005973,0.9975093638736612,1.0547368897195042,0.5580132222110814,1.1039911211067124,0.6847149204014097,0.9076692851482944,1.0464984014898109,0.954984600735842,0.9457631778889247,,0.9666144709509077,0.9799548752279681,0.9794763548366168,0.9764556962025317,0.8083760691470989,1.0731504479485496,1.211582644564104,0.49483537597727245,0.02507526248723941,0.034830672608322635,-0.7955685779513952,0.686315834184279,0.8094586841592017,0.1762721775535099,,,,,,,,,0.9500590945034656,0.0,0.8501030927835052,0.9627544993398652,0.8235765838011226,0.49437309275977576,0.3484375829401388,0.561797631710944,0.9058056216687426,0.6399876330508973,0.4810631199320792,0.6202182648682791,0.6210037991710806,0.6194449682411169,0.6242889587155698,0.5963671769541764,0.9818960438804383,1.3734380688723382,0.8460630408326566,0.33944698122357414,0.332925766605519,0.5695488721804511,0.33681284209159945,0.335465761472681,0.34206050617691813,0.33132764945648985,2.2023809523809526,0.337253545485991,0.3338603482630165,0.3407559654662816,0.3287340459193572,1.6739903931684754,0.3353284268661755,0.33096186031033625
30,0.939548475147035,0.9542420566524648,0.9593249239681501,1.2107227290957407,1.015638981802541,0.9512195121951219,1.0,1.0512820512820513,1.12,0.9315789473684211,0.95,0.9128666246969404,0.914889981671735,0.9605263157894737,0.9250936329588015,0.8468428781204113,0.8148148148148148,1.8656434939053685,2.5813037081851054,2.6015164149534176,0.7227711151163791,1.0693266925562854,1.4794980935774855,0.7698335346964991,1.0058800174455098,0.48038646226075776,0.9360282467308554,1.0588298324090606,1.1885121028987649,0.790417132718692,1.0652645736709216,0.9071410855613863,1.21925560046314,1.4261105774889846,1.0104755478003873,1.1723802959870506,0.8127996355689844,1.1051049298665205,,0.8926141798152163,1.0053355133313628,0.9304686480743072,0.9990550242640504,0.9104371413206874,0.7726808001871843,1.7988972606340594,0.23575001966094172,0.38865415829012395,0.5214490643699307,0.24048381536577523,0.8769626160809976,1.0993531698422667,0.767890742869564,,,,,,,,,0.6884344570703804,2.609848484848485,1.1049268233599474,0.9603945717869768,1.0088235294117647,0.6007244359532289,1.1220831296308158,0.95932492396815,0.820175010301392,0.9281647790073011,0.987173894704565,1.1696577925516851,1.275145751935124,1.0398880510777224,1.240588029962419,1.0329653119209583,1.0045175081742226,0.8446400327583836,0.9105679462154218,0.16096488822284927,0.16622625765869664,0.9538461538461539,0.16513732203425874,0.1634986255247512,0.16155682399236665,0.16621617671078925,0.9606986899563319,0.16543015667183947,0.16348971263571757,0.1616392131330824,0.1641187128447989,0.9743476234855546,0.16392014573182534,0.16138999427241502
31,0.927960415967796,0.8040483731564274,0.8072285286510452,0.9820898173508823,0.8664683959798682,0.9255813953488372,0.6923076923076923,0.7479706223424816,0.74,0.9367847019880676,0.9110562582030783,0.4657400970765026,0.8128302648850594,0.9388888888888889,0.8992805755395683,0.6325,1.1916666666666667,0.7849964589940892,1.8292819277285162,1.131585245616228,0.4291307783538243,0.6575796064986812,1.5323649916588022,0.8241099052204097,1.015016973493632,0.6889244058991861,0.909892637740761,1.0987259738749353,1.1001868396456764,0.9152011162726411,0.9626263528872323,0.85279891187266,1.1589282073061253,1.0842015869695183,0.9746357820814033,1.0624843761195568,0.9444880152302657,1.1130185197615123,,0.8673651220421359,1.0159569633029943,0.985400776918911,0.8771082567834916,0.7846305831519336,0.7886928444399278,3.0392554709609434,0.23514010883084974,0.761546440119556,0.6539661322732788,0.02692787557693348,0.8789562415513472,1.1851844286002697,0.7742284125077898,,,,,,,,,0.5410695127355768,inf,0.973288978447858,0.884028252449305,0.7231024573919936,0.8265990788493879,0.7551781359304299,0.8072285286510452,0.8628674257250917,0.77012160732182,0.8462702846497265,0.9355197633146836,0.9812184342306522,0.8949263584399734,0.9404600950093485,0.8866948229842201,1.016922686163654,0.8748881736950909,0.9013199914132921,0.3650427345083648,0.36489733131573043,0.7216494845360825,0.3580822201985895,0.3572688799930793,0.3660243936440863,0.36489519569680706,0.8,0.3585881811910784,0.3572647601476015,0.3673916484374615,0.3603856671728908,0.8677430170479458,0.3567473323054158,0.35441292271185565
32,0.9076295882417887,0.5731386067557244,0.5761457667661841,0.631846938045673,0.631467521751883,0.9212328767123288,0.640625,0.6954217133872196,0.5859375,0.9381188118811881,0.890495867768595,0.5857030855617562,0.8932318369704941,0.9502762430939227,0.7411003236245954,0.5510589504923782,1.4166666666666665,1.519122596323782,3.363561100756698,4.042199883576,0.45164963132606906,0.6537423164638348,1.4474751068817528,0.6756287542286179,0.9875371737949645,0.3129635048058804,1.1236853518177154,0.880007305336705,0.9212655887205677,1.0806533747671865,1.0861525526333735,0.4744806501946546,0.9963176871114485,0.5719107483249957,0.9040560986053208,0.957329475523165,1.0432868871438348,1.0932634158739662,,0.9822359130119671,0.9872156207000077,0.9860776075946138,0.8970161436604389,1.0761086382679514,1.1592708088832637,0.3375196610738116,2.4002637563659173,1.366859014158459,0.8543561963261965,1.3542856657815059,1.1223089556977142,0.9428325175512797,0.7734918784158884,,,,,,,,,0.5481376523032001,0.0,0.9751138427069896,0.8655423942252556,0.6968669579714579,0.4599387059298252,0.3307207898685206,0.5761457667661841,1.0036996266595406,0.6107701228316647,0.5405049332967684,0.5740232926964477,0.5509587065090016,0.5967225490670172,0.562024024964386,0.5867151239537427,0.9867896988406337,0.7715586700627308,0.82570767639192,0.19863945910937392,0.2006155950885834,0.4576271186440678,0.19580823497048844,0.1954154509703648,0.19934287282825008,0.2006226892182471,0.5789473684210527,0.1961500881901354,0.1954103362786854,0.20145803594540687,0.20125428532512946,0.7013289036544851,0.1973911689620758,0.195980187721916
33,0.9082387801440558,1.3807178433113971,1.3855344152314242,1.4246658495388584,1.5202145817101882,0.9054054054054054,1.1764705882352942,1.299385425812116,1.1415966386554621,0.874384236453202,0.9202492472398796,0.8350219298245615,0.9154483430799222,0.850828729281768,1.1037735849056605,0.45749838396897224,1.05,1.6390224626485987,1.9569831898266157,5.624713826856948,0.83752613475459,0.986171823864689,1.1774820585095978,0.8203675842194128,1.0650977118464453,0.5370535673195829,0.6321314569019059,1.307481412077046,1.2233136879192972,0.7591984553038498,0.8096599423532109,0.7879030385367711,0.9152672122751613,1.1606819769482897,1.0493833416514418,1.1276489695355179,0.8675027108251455,1.0979065682147877,,0.7322998637998355,1.0657014860106222,0.9154812722756682,0.8497153443419272,0.6366980771685693,1.1664447130636226,1.7082264219724284,-3.5240888738346574,1.7441034266200002,1.9663130306769978,-0.024627853491006328,0.9148958353629751,1.3533783473688443,1.280625386361883,,,,,,,,,0.46339809530233134,3.717320261437908,1.1420834013565058,0.8470823798627003,0.7534420289855073,0.6037255322580293,1.757044347870285,1.3855344152314242,1.0925771602814265,1.102639705222423,1.5857954778853467,1.268134354506914,1.4026005659112317,1.10495059789345,1.366264678167719,1.198349317425528,1.0679868379614756,0.5800759247992189,0.88425677312052,0.30699847855318335,0.3145724381968702,0.42075277390206633,0.3127135335021504,0.31233550810383814,0.3079465064298551,0.31456480895956584,0.5181628441442709,0.3131891305657649,0.31233550810383814,0.3073258067448905,0.30875203699716736,0.6406367443358746,0.30920029701083585,0.307373535649569
34,0.9013305275266998,0.8082714218798485,0.8119678185216812,1.306109680805577,0.8967536294346863,0.9024989716166187,1.1875,1.3157977386934672,1.21875,0.847449194869933,0.9133333333333333,0.7324689368484989,0.7554583927798528,0.9275440247345073,0.946236559139785,0.8483050847457627,0.1984126984126984,1.7170533795314435,0.3607126468326819,0.9203487226886997,4.760510455649941,1.9823952775673648,0.4164564884985205,1.2747117077841343,0.9601073806215217,0.5152411725909517,0.9127005662643927,1.0860401640756678,1.2580839483399529,0.7780320338666715,0.9957022372217176,0.5864478961690089,1.5193399277309736,1.8743295340165682,1.0001466569400592,1.2243768222374956,0.8029614615213894,1.3991756580892436,,0.7166325729418415,0.9553536642028753,0.8563561302825109,0.8896900864636177,0.6410762058243122,0.877892951777032,3.658845131312461,-0.34493054479508733,0.49057416723226693,0.14725335514340734,-0.4220983153495858,0.6244617540392617,1.0989325773080751,0.2689043573344926,,,,,,,,,0.5537887180358982,0.0,1.2726640768758946,0.8944984554740653,1.1396761133603237,0.4483240916774713,1.0016846469731167,0.8119678185216814,0.6581831721841902,0.775995173651552,0.8464686459766999,1.2336487409577903,1.3836883336048196,1.0881436646743927,1.3049371163091443,1.0567764205332837,0.950544127036995,0.5533000008458413,0.8962716074183568,0.23449573698516252,0.2362230072844212,0.5137795275590551,0.23633016873376045,0.23524946514032619,0.23529706100434655,0.23621639415388945,0.5694444444444444,0.2367320141688042,0.2352625444730708,0.23984494049089644,0.23638202145335196,0.6497912481165244,0.23834490100165506,0.23608364030396234
35,0.9246025605794773,0.6893517366529786,0.6924490632342294,0.9017580937788003,0.7455655438966001,0.9318181818181818,0.8461538461538461,0.9080675422138835,0.8350301659125188,0.9403714565004888,0.9269131915440467,0.6001102070687503,0.8247582045621781,1.0057803468208093,0.879182156133829,0.6790303738317757,0.6,1.5425112918928217,1.2879298208831076,1.7728299093864277,1.19777724279546,1.1253583928117543,0.939606153617689,0.9205350554522024,0.9985023260791108,0.7324679966606584,0.9574457437643535,1.0474707341960268,1.0676382956648847,0.9449302679269456,0.8348437949076,0.8369379638570549,1.26154454672944,1.1020171828507406,0.9545378451544287,1.0402657452108701,0.9651695130091522,1.128559902063128,,0.8501876374505124,0.9972829024106787,0.9279625895619339,0.9671406121379928,1.004149252121966,1.2609265604274853,2.250645854541187,0.37998280112734706,2.0024395999929965,1.5990109759211388,0.5469830631698182,1.0368438057548874,1.3100580036767875,1.216758327031178,,,,,,,,,0.7304372635169596,2.571428571428571,1.0568775879917185,1.0128534080298786,0.8571937321937322,0.6806156014265887,0.6048865150806841,0.6924490632342295,0.792687055436313,0.6775348168128799,0.7086680524296185,0.8735462842037498,0.9026022233118001,0.8491503048909163,0.8587328015044113,0.8271581580270227,0.9958703749769302,0.9709843133104442,0.8874557333189039,0.33519870200989477,0.3291491564263827,2.6140350877192984,0.3267779291198186,0.3240221102278086,0.3361662116188135,0.3291617421240006,1.9891304347826086,0.3272748370218781,0.3240429534741159,0.3326533303856577,0.3253919928413942,1.504735227424303,0.32387140676305803,0.31955849473109976
36,1.0163492539218946,0.40360626465209415,0.40571157555935544,0.29485548387754756,0.39695570941625413,0.9955555555555555,0.33333333333333337,0.33482142857142866,0.32894736842105265,1.0861529871580122,0.9404557107198273,1.5199275362318843,0.9894949628844116,2.0140970140970142,0.7883957687107293,0.5443376965467484,0.24853801169590645,58.82173947131385,65.2988972471203,8.34039425572481,1.3106625988570966,1.8831869963815298,1.6989719174853137,0.4385528622018289,0.996210561569175,0.39895200275658654,1.2380368881787023,0.8204937660828071,0.8956190602928975,1.1228194699970602,1.590745101868083,0.6015392449167368,0.7251781649060325,0.20594349631880451,0.8176569055765057,0.9610121532729454,1.0424161178988052,1.9151190102712656,,2.4856163546752805,1.0050277153893723,1.0076093428220245,0.9746291959406715,1.618902880602496,2.5086219755929253,0.17439765005676083,1.36461843237558,0.2675578878026395,0.20843352515259947,0.3848720121219356,1.2122589818673344,0.9752574653229382,0.3553031802037533,,,,,,,,,7.76090071929703,0.49285714285714277,0.8992424242424242,0.9408768053527071,0.9352807822571835,0.591244543388799,0.11508914628567857,0.4057115755593554,1.4302243046235135,0.44483842575047156,0.37090733441993134,0.2838300494528046,0.26851765097715496,0.3006757529188041,0.29518587435200805,0.30729820121690987,1.0159395532692472,2.0542211579796854,0.764713358885723,0.3201606511887985,0.30881034039319594,0.6416309012875536,0.3046239171913609,0.3030730857394788,0.321248679106769,0.30872900960167726,0.7116788321167883,0.3051293636917274,0.30292915127693615,0.31854279308711825,0.3042915895553284,0.7608717569565802,0.3019221733706744,0.29879218272802366
37,1.0115270042740576,0.7615486199791788,0.7648964245004488,1.082655727618804,0.7537061951235295,1.0206611570247934,1.25,1.2246963562753033,1.2272727272727273,1.0055771906448074,1.0250208452759393,0.8425198036203728,1.016406383341867,1.5590225563909774,0.9924242424242424,1.0439278535914525,1.0927033492822966,0.5729154255067346,0.4948517310811521,0.3017249703172714,1.1698640413697186,1.1695000266215096,1.0125267234023934,1.2306515216612985,1.0099862051911799,0.5904536623376508,1.227263556858377,0.8656367500379298,0.8108673367453489,1.4107024239728605,1.242217526916174,0.8521768442429916,1.5861201428347709,2.028613828991344,0.9877773937974248,0.836770937908354,1.2205746801407749,1.5635884287181976,,1.1477552352724252,1.0136662326220416,0.9103627167988813,0.9307692307692308,1.2191062712574603,0.8284049119204147,-0.0,0.1805536950587795,8.827009334723108,1.61093063872255,0.7709556347117099,1.0594063268452252,0.8419807094291318,0.8443271901240852,,,,,,,,,1.1083871101827794,1.1304347826086956,0.9712962962962964,0.9105619363071936,0.8883865683865684,0.7768190008176482,1.056889575112558,0.7648964245004488,0.6344683728870788,0.8168552402399496,0.7290770150685325,1.2422746403724148,1.1593472205207698,1.3791028428146987,1.0251752753228143,1.1900853966999647,1.0204983817817597,1.232378126189717,1.0019950616144397,0.4800314041769806,0.46869503666192835,0.8469218364636691,0.46644072173988954,0.4635484660379118,0.4813379577795169,0.46858077154312644,0.8677966101694915,0.467036094054216,0.46346328195829556,0.4763630034666039,0.46155269616261685,0.891007365169874,0.4608165456358649,0.4560454504245867
38,0.9698316954704621,1.1491761228038824,1.1562796652224971,1.3811047865150914,1.1849232481997003,0.9772727272727273,1.1666666666666665,1.1937984496124028,1.1979166666666665,0.96875,0.9742647058823529,1.452948717948718,1.0407079646017698,0.9184549356223176,0.9649122807017544,0.7589285714285714,1.1025,6.37669811245814,2.8435372547303945,4.436906026221964,2.2431018697581644,1.9412999001984026,0.8655473848502235,0.7604050399737508,0.9543592309641703,0.545216968001845,0.9930609574344718,1.0085708080853277,0.9698785828682499,1.0277504156801829,0.959046156298213,0.7834144777184197,1.2109682881095343,1.6956147215274793,1.0488613954516044,0.9564679067493191,1.0406915974568443,1.6406539371432562,,0.94750600199877,0.955455539616006,0.9286952813709355,0.8990099215409524,0.5915064839905312,1.2130661806900656,1.8715109615558005,-0.1980562464724056,2.055353742253978,0.9039613302587737,-1.135009927189544,0.9513584322356283,1.2280648265738061,0.7430807706875608,,,,,,,,,0.6220726206616842,0.47272727272727266,0.980530741340739,0.8653463802580796,0.9290910482722721,0.45501299371114645,1.6190478025990258,1.1562796652224971,0.8257858461903452,1.1532875418074067,1.1622575093490068,1.4002156605892757,1.378383189630171,1.419066462827372,1.3031986937577593,1.3593259465547805,0.9565767744359542,0.6415422986419191,0.9032202547079069,0.17892815138216064,0.17478228622279074,0.5840336134453782,0.17429307184252932,0.17319171205658562,0.1797564619673821,0.1747420856608219,0.656140350877193,0.17473399763553454,0.17318423133401106,0.17824081425047683,0.17198186626120254,0.7254880421819094,0.172636659036182,0.1704073103510595
39,0.9891398622891413,0.8647091626329624,0.8696926122900467,0.903790216880437,0.8742031290011789,0.9866412213740459,0.8333333333333333,0.8446195364800015,0.8181818181818182,1.0,0.9843866171003718,0.7883239171374765,0.945509961344038,1.0170212765957447,0.9837283524302831,0.7532781228433403,0.8214285714285714,4.049432936944299,1.6111211485656733,8.918437149080782,2.5135863874680706,2.3087109761855973,0.9185135373770952,0.8453865162985627,0.9802774422104997,0.4895886845396396,1.0328195851697275,0.9599740294268533,1.2525316520391332,0.843745712042324,1.022784844955591,,1.0755748478753628,1.0061124614565122,0.9787666789610281,1.1351352461639042,0.8887031120834714,1.651254507985533,,1.0959783101638285,0.9801215149846838,0.9870343539977018,0.9595749048589071,1.3945386440623153,1.555851824415639,1.4976016919418227,0.5733972567651213,0.8137520362397862,0.7213291900914555,-0.025176561944192773,1.2579597671345906,1.625997137984274,0.7885283233768317,,,,,,,,,0.4774532330217534,1.2723684210526316,1.107844086320127,0.9359256229859043,0.9428571428571428,,0.8135268401063784,0.8696926122900467,0.9297361169895386,0.883685350984251,0.851950943890073,0.9354185641116508,1.0467960329470052,0.8592151637299421,0.9682419537855069,0.8567298507493377,0.9799528504947068,inf,0.887237203835537,0.36828528199371324,0.36665845318413226,0.6618858115568642,0.36416137184968234,0.362687965643512,0.3698332700059502,0.366698490098197,0.766798418972332,0.3648932405332075,0.36247982531092754,0.374279167046099,0.36900050698166253,0.8184598197379384,0.3683711444189949,0.3648764871709112
40,0.9894513570379788,1.011050283537768,1.0152525592720365,1.3341709895427547,1.0218291948827558,0.9960629921259843,1.1666666666666665,1.1712779973649539,1.0833333333333333,0.983739837398374,0.9961685823754789,1.1004918032786886,1.0780679891052984,0.9605263157894737,0.9925650557620818,1.1131386861313868,1.812121212121212,3.240408337285499,4.635225117340032,3.8791144888705693,0.699111528130612,0.7793137382612967,1.1147351942385684,0.6350278239374694,0.9554959636284555,0.7090509646980864,1.022358069741356,0.9709139736718975,1.3624686088538525,0.7650143951551918,0.9059834568498263,0.7598262879771919,1.4076754434132894,2.011754213963628,1.0383059613160728,1.2266425925481075,0.8199852170615902,1.5985602620609103,,0.9036727438780267,0.9558168360167928,0.9214133184805451,0.8416875522138682,0.7042034875262844,1.3403969431519553,47.85151919016158,1.5310182897116598,10.122425934980717,3.749518497689563,2.61587399615599,1.3497241677636487,2.50936906481949,1.3397023723318515,,,,,,,,,0.7135096997595514,0.5476190476190476,1.1825860948667966,0.8327500460489963,0.91410804508356,0.9944478288363576,1.4509349803791896,1.015252559272036,0.7103957991719427,1.0271214083839477,1.0009433487431738,1.429134313491202,1.6681534413689123,1.249993983344044,1.4662277044037,1.198796722300838,0.9561782432183852,0.569830371177703,0.9691369317250278,0.45451191359052856,0.4475315737925626,1.2435897435897436,0.44251984738249495,0.4407164169448111,0.4558949701213654,0.4474440575395812,1.1721311475409837,0.44312496405773766,0.4405586334256694,0.4615739832800758,0.4507970364060022,1.1085278564179264,0.4476681989905731,0.44395016509593355
41,0.965949636053483,0.990657415975664,0.9960806201512726,0.7837008073072627,1.0255787455163068,0.9602336870625423,1.1325757575757576,1.1794306703397612,1.0,0.9598393574297188,0.9644208932626798,0.9678491763898422,0.9932578992142111,1.0931372549019607,0.9490909090909091,1.025563909774436,0.5,5.907907860413626,4.127053750076064,10.259987240921648,1.4315133735672543,1.4019542202572053,0.9793518901260887,0.6539332793905496,1.046612785581854,0.4336819825201428,0.9968227232862431,1.0037388921943593,0.7868562401872203,1.1440194537366652,1.1585532709811859,0.8920057639364879,0.7021423169115585,0.49107207642045775,0.9645449772889048,0.8965672253193508,1.0770167016562437,1.2578196253052698,,1.423836195456991,1.0462811087183561,0.9493995737890649,0.9123573281296038,1.4940568380914718,1.6069642163780626,0.13296293460236858,-0.7454370124406953,2.2864889885015067,1.4713219142574978,-0.28928658235956667,1.3387206061404542,0.5713614791850432,1.0556136727624676,,,,,,,,,1.3928202698051304,1.5388888888888888,0.8584988057174945,0.8984963579604579,0.9228813559322033,0.8268439371643894,0.6966489448238498,0.9960806201512726,1.4242146885267832,0.9946475904408931,0.9980910462899703,0.6993902294407707,0.6203827712878484,0.7480586484877014,0.717748439247982,0.7866775130417194,1.0459489611146116,2.6268191318707186,0.9070720728157428,0.3186350317445965,0.31420920841274247,4.1521739130434785,0.3178103061371544,0.3149479808483002,0.3198148853175889,0.31424891127950644,1.75,0.3185099862188123,0.31520461808061023,0.3234727414429004,0.3158071341549368,1.4644947443860485,0.3210707171068637,0.3167358946279907
42,0.962474341800857,0.6342762481973658,0.6379559761959723,0.600679781879742,0.6590058775079555,0.9550561797752809,0.8571428571428573,0.8974789915966388,0.8392857142857142,0.9590423038218862,0.9590145559028764,1.1341681079211345,1.0240323804705287,1.8650793650793651,0.9736842105263158,0.7939958592132506,0.20656370656370657,3.3583784586129166,2.5205496734138313,0.3241845039181674,1.332567356517516,1.5816067012612507,1.1869340881080226,0.7320249408137467,0.9670977240625676,0.17134281236689514,1.0897907124853008,0.8880714311081173,0.6166334028767162,1.8318862227715473,1.5108986888420097,0.44564302889412255,0.8653571626876811,0.477695885060982,0.9053785413789737,0.7405791654661517,1.4819784650982384,0.9404122183912011,,1.3119068367462627,0.9673473227521112,0.9781196027319043,0.9236730534646397,1.4791389542813875,1.2217519523080336,1.0956809520916735,0.07490147620033757,0.017178589060243707,0.068049717535754,-0.07140633161345078,1.1223555702241457,1.0477344623615554,0.3655272398111714,,,,,,,,,0.6707405112488949,0.1985294117647059,1.0077636620286348,0.8892301029547826,0.942347200821777,0.5243576998588767,0.35216682314736486,0.6379559761959723,1.1556677742502972,0.6660825730313287,0.6013102694956152,0.5520226622405541,0.4331221584759998,0.7468406054022183,0.49569398715732005,0.7011611848723721,0.96828931035896,0.7312140445060131,0.9552233485760848,0.31822332159991507,0.31231246215981856,1.4932432432432432,0.3123093421034643,0.3087321827260775,0.31944894910168625,0.3122931035332007,1.40625,0.31291532471768113,0.30861949003397043,0.32327236326931236,0.31403454005145093,1.3024671946024757,0.3157286118657786,0.3103579549875326
43,1.0535644042124417,1.0977413923865615,1.1059607861178975,0.9023699397044407,1.041930969268812,1.0546875,1.0,0.9481481481481481,0.9583333333333334,1.0556010077398577,1.0570342205323193,1.1341991341991342,1.1331623995752147,1.0862068965517242,1.032967032967033,0.6570540005654509,1.0,5.112329518840163,14.902804918438767,2.4811734522972886,0.34303994783924807,0.4072202535793326,1.1870873956039238,0.4735858224177141,1.0339550223802432,0.36985512015155086,0.97236508466856,1.03636237230271,0.9211006371354025,1.0473557290615991,0.9728832138881784,0.2672392904324253,0.758725632905627,0.6366605269074661,0.9922818083947402,1.0082992632408148,0.9932714237966581,0.9078854529392986,,1.2318320961398423,1.0339119396329361,0.9963578482404183,0.955,1.1647144000443679,1.4862149207878796,13.884945454568506,-0.018559624214283463,2.553489462964762,4.1808050761709445,2.1551519783408235,0.8678193337264748,1.228660183324309,2.113562139644168,,,,,,,,,1.0442815982468747,0.0,1.0550057537399309,0.9018932874354562,1.0084033613445378,0.2016859578447848,0.9280258679557014,1.1059607861178975,1.3180139162390483,1.0910517317876849,1.1263762243134339,0.839114933652607,0.8053309668738683,0.8587539136051114,0.9528278424814359,0.94570033553236,1.033863719611246,1.2763636539326346,0.8963717461838281,0.15504385860897724,0.15330936242609025,0.864402525545491,0.15252099997602409,0.15040658475852675,0.15598674060759452,0.15320230491636913,0.9779756770743488,0.15292389535114534,0.1501262255366329,0.15759827207343102,0.15360735713736245,0.9830302780977456,0.15395477408550773,0.1505399427643625
44,0.9858883669146798,1.2093013919498659,1.2146608058101287,1.924527453009869,1.2266108810078094,0.9942528735632183,2.0,2.0115606936416186,1.9583333333333333,0.9675889328063241,1.0148698884758365,1.2647569444444446,1.1571969696969697,0.9336099585062241,1.010752688172043,1.276595744680851,1.6145833333333335,1.0348648967002898,0.5412972901738071,0.7991113914970167,1.9118291446982056,1.7639682239873498,0.9226600673739351,1.198050838275515,0.9693271233479235,0.6974992089035761,0.9661729823295087,1.0498306709998069,1.2434257229622596,0.8782583921924276,0.8735832985532622,0.7402006487697876,1.8887620809541361,4.333210268733841,1.1055249163513068,0.9868406505584593,1.0108170851518254,1.683575202099266,,0.9378735103122897,0.9675238195217282,0.9190985510680285,0.9547705199009712,0.6333226970886097,0.9209685000219539,12.345429129310464,-0.7722663985653284,3.930692839526701,1.395536460795697,-27.310837757422732,1.280504901101075,2.2309422677145854,0.9248575817781906,,,,,,,,,0.8454506546852552,0.0,1.2020277392838954,0.9146213183730715,0.995340167753961,0.7198807299260612,2.7866817172382516,1.2146608058101285,0.5294475102316019,1.194583822952745,1.2452239538151666,2.294205455155663,2.5581314628577165,2.1500125649392845,1.8782412020944577,1.900927654335518,0.9656780770820963,0.6117051542860777,1.0768272887959518,0.42921253191506126,0.426564942539005,0.5882423371647509,0.42028456274175663,0.41962552131428205,0.43070696566305294,0.42642977552578043,0.708994708994709,0.4210049979737944,0.41952696464454464,0.42915201922603285,0.4229912791936665,0.7892689371697006,0.41872302298758324,0.41607884951881013
45,0.9704752531826406,0.8787145815813389,0.8787525555820929,1.4614854021618124,0.9054476323158615,0.971252445523848,1.1666666666666665,1.201198181124699,1.1740196078431373,0.9534685639028859,0.9705179282868526,0.48897058823529416,0.9232326378075365,0.9351851851851852,1.0196078431372548,1.0612244897959184,1.5,0.721394863088586,0.3607969131881634,1.271005591943882,1.9993465461147815,1.4557693033469576,0.728123588846143,1.3451411170501562,1.0286255888610718,1.5909571756405594,1.019926768128934,0.9774149636649059,1.1420544318201524,0.8656611037631732,1.0049737356456654,1.0221374044003475,1.7959038699856973,2.834204457541169,1.0335851674117764,1.109985180862173,0.8903258131541956,1.3855469155879452,,0.8147065392553616,1.0286241369523954,0.8712832109890647,0.777724674812771,0.5724311940107244,1.1698302727616117,2.1879005510618375,0.3365297577516225,0.7810171855599823,0.3631854217124511,-0.047363149587513344,0.9484586421973714,1.2628800548644032,0.43832239053003985,,,,,,,,,0.8007184638039665,1.3100490196078431,1.0497276029055689,0.7928651059085841,0.7549917241215065,0.8229279427543034,1.386807728623626,0.8787525555820932,0.5568233744475977,0.8879386733255366,0.8692273616999331,1.5781512250938239,1.686395671329873,1.4682503286184823,1.4913695396072284,1.3356992640041696,1.0285549943540184,1.405165127251598,1.054477893470985,0.9010264731249251,0.8989845499856692,1.25,0.903122802906023,0.9009550760523524,0.9014686480286351,0.8990074729614878,1.1666666666666665,0.9034369885433715,0.9011555922410235,0.9148685971794961,0.9120282721906099,1.0995370370370372,0.9168561220450894,0.9144959185139163
46,0.9766760202760573,1.7561363000892185,1.762228600696421,1.9931785397608461,1.8037680852677955,0.9803921568627451,1.0,1.02,1.0731707317073171,0.9842105263157894,0.9846743295019157,1.2890517050203854,1.0059646706895422,0.7488900399585614,0.9926470588235294,0.904575892857143,2.2222222222222223,2.856565135270257,2.037282708568491,5.182567216114517,1.4219946236997432,1.272383226384382,0.8936393826913911,0.7724564504462746,0.963657268829671,1.1261238205608124,0.9685643308938137,1.0391820116836121,0.9342721155880985,1.039725804352285,0.6487676156826948,0.31766627981546663,1.1265953987916684,2.6109985859480505,1.1111093344786767,0.9066844237412924,1.075171690128922,1.5203866014917469,,0.7238674753669354,0.9646973634031302,0.9743316368181547,1.1834743005855564,0.8786220794761503,0.9397391921824791,2.414223554203962,0.5887467910882502,6.084302552815101,1.0433481643652929,0.8205773204444785,0.9977398612375417,1.302512868342037,0.8527244640827458,,,,,,,,,0.5119456678408814,2.742105263157895,1.1294090596949036,1.1600638858174555,1.0467499999999998,0.2125559162191828,4.477014060240541,1.7622286006964205,0.91683275839005,1.7308992688835345,1.7987088750899334,2.11984195197211,1.7932936616031212,2.2623464355550498,1.7596874196352192,2.124984866976418,0.9665498524600986,0.5798968928508769,0.9852625032036202,0.6257455573183772,0.6248676789550105,0.5392554281986768,0.6250892841525002,0.6256056510506695,0.6270666538965712,0.62484209234984,0.6465968586387434,0.6258046117493685,0.6256415520427017,0.6292484722758636,0.6249621692365839,0.7419345546721973,0.6282719434661337,0.6270394961661069
47,0.9599362808193544,0.92486623196646,0.9300895129743256,0.7688935825348509,0.9634661166157781,0.9599236641221374,0.8125,0.8464214711729623,0.8583333333333334,0.9682539682539683,0.9564575645756458,0.9222544750846637,0.8299358974358975,1.087986282284857,0.9233449477351916,0.6818181818181819,0.20606060606060606,1.0795543615740366,3.63566627035042,6.606879224548441,0.29688483393616316,0.4514930618864138,1.5212498010620408,0.6483634320418972,0.9938953540762632,0.20170050028916361,1.0028535460464882,0.9959541678141985,0.8781922714265253,1.0986661274200826,1.2138041522723726,0.6198611013927533,0.7126931031908168,0.47239481474171063,0.952050192972735,0.9881273795090972,1.0116406077083702,0.6476622921826398,,1.0305097010943354,0.9947280597118141,1.0541676102819242,1.0228026640425563,1.4613196711532437,1.0646235063493714,0.5641101768415011,0.5141497861357497,0.10067702162146194,0.39915359150094826,-1.1425852543369184,0.6645573171802097,0.6065213090471855,0.7626195479575568,,,,,,,,,0.9347611377186968,3.56656346749226,0.9436043186043186,1.0336507936507937,0.9571272568433313,0.5283806627012992,0.6164956159095196,0.9300895129743257,1.4032000101868565,0.9314371202088751,0.9282744631394333,0.6628326107012286,0.6210939312801362,0.6947351066291336,0.7474806413137238,0.7563588423925498,0.9957607784635697,1.3001237811935669,0.8899600755550413,0.33510542246614883,0.3290142159362528,1.0479166666666666,0.33141132434712994,0.32767132821505474,0.33643743784883207,0.3289761640871912,1.0456140350877192,0.3316709846105446,0.3272510048247799,0.3403917491747288,0.33083684939983027,1.0323033707865168,0.33427538115038113,0.32885202968136185
48,0.9986635030599859,1.0009866342531901,1.0078625360334463,0.8951711503219373,1.0023262402061213,1.0041322314049588,1.0,0.9958847736625515,0.9375,1.0017241379310344,0.999203187250996,1.004000516195638,0.9385997529238697,1.0436893203883495,0.9679883671442757,0.5263496143958869,0.5178571428571428,12.563981735051026,8.0113420905788,14.603079562755692,1.5685862671025288,1.6765335354646034,1.0690031959446564,0.6147847543879877,0.993508733756755,0.3685885630954052,1.0553603058471652,0.9320874461530592,0.9405023475848926,1.048534406949888,1.0233034122188873,0.7131400353611892,0.8506895337251292,0.7293626146246227,0.9855299465589663,0.9821808486085022,1.0156807802606018,1.1747999604778854,,1.0471829425823025,0.9935543647789815,0.958606077220256,1.005082845633503,0.6667434535483243,1.2086175992750836,-0.0,0.07669012770539599,0.08850135404317744,0.17149855915409723,-3.6526472347781502,0.8748842308866325,0.9012496636413763,0.4436286582435464,,,,,,,,,0.5419738299914301,1.9027777777777777,0.9390068099794185,0.9841616413668814,0.9080055210489992,0.5836337516463272,0.8641194863952064,1.0078625360334463,1.175516991992851,1.0353772003393775,0.9730314990944677,0.8573781272794252,0.8314316143898858,0.8779019381679434,0.8778263922767044,0.8926701901426689,0.993598644556636,0.7170175161828888,0.8640462768796936,0.1649548244842508,0.16361651299004304,1.3949658282251813,0.1639528265015806,0.16174260610235697,0.16576452564108327,0.16361032282282056,1.3286384976525822,0.16438035687700717,0.16173727684519051,0.1670260104367039,0.1636153368229478,1.2478008401284901,0.16502141136079984,0.16173813882045796
49,0.9434744760528219,1.0038125642662954,1.0090617531182735,1.6829285488601458,1.0639530689435368,0.9484732824427481,1.4999999999999998,1.5814889336016091,1.625,0.9291338582677166,0.9587360594795539,0.8086228287841192,0.8229396462018732,0.8949579831932774,0.9750508388408744,1.1863203463203464,0.8508771929824561,4.824438559677147,0.7088207015421235,5.210833454863882,6.803772509300337,4.476762304628668,0.6579841238093369,1.1033596901892955,0.9929615803964376,0.5461218806175399,0.9790079045078679,1.0290808485318141,1.4469861369274186,0.7453389590221604,1.042088020818202,0.24949071264071696,1.8760594621591433,3.551485512133258,1.066286859315309,1.1809230188265432,0.8515868119671401,3.0655222578776398,,0.8850717057589738,0.9929759189683065,0.8751682935694182,0.9068511796733214,0.48292248245432734,1.154946715602952,0.6542061472723902,0.8272152909251552,6.358205467238037,2.019048377077663,0.8391790115569869,1.9164683837550778,2.7039434402374907,1.0829750903873658,,,,,,,,,0.9591713054936659,1.0277777777777777,1.0437990803434314,0.8997695852534563,0.8967223252937538,0.2334113696555082,1.9102120999175125,1.0090617531182735,0.5330328227861088,0.9983958905253956,1.0236171228018565,1.8930566929765265,2.2771219889210172,1.6343054432484974,1.7356953935857233,1.473927663134043,0.9929737079503995,1.1643215405810574,1.013490633740135,0.3648895276159009,0.36152041563079784,0.7615740740740741,0.35656549373618274,0.354540825773005,0.36626471130549243,0.36146920512380615,0.8091603053435115,0.35725787899700945,0.3545176819107573,0.364945354190004,0.3582757569636065,0.8500746255237274,0.354788395596907,0.35094194630091047
50,0.9170424806428608,0.7971061223962497,0.8016142231944993,1.108420515462265,0.8692139559744998,0.9083969465648855,1.4375,1.5824579831932772,1.415719696969697,0.9024,0.9340740740740741,0.5090725806451613,0.7408357245337158,0.990521327014218,0.9242957746478873,0.7543611504007544,0.3235294117647059,4.060711463047168,1.586217806058838,3.038434320402387,2.5600604849101285,2.0755067374577187,0.8107380907792796,0.9081450821113701,0.9538502039559611,0.2728665919763989,0.9952755383160968,1.0062452538756663,1.0594301468597038,0.9599492634138083,1.0421238986215662,0.0,1.319563690699014,1.3957957536548997,0.984170837961906,1.0238457800905973,0.9819360822601066,1.4414474994353674,,0.8621215279546339,0.9533722051290043,0.9116765225518343,1.0386989321054179,0.6431748546139437,1.0338099155841944,1.5947217384579062,0.2438909203158361,0.7599101613753743,1.0565642446424142,0.38400938998169726,1.0547833623811451,1.203349378938052,1.1984167748031622,,,,,,,,,0.3825112185205535,2.9736842105263155,1.091896186440678,1.02864656075419,0.9348279543401494,0.0,0.847925755396181,0.8016142231944992,0.7578321994366028,0.8002790156664327,0.8046795026563831,1.0577716866569138,1.0887452563179643,1.0363719532875457,1.0306623972326499,1.0093511098860897,0.9530004798399311,0.5815204534111861,0.9076205628092413,0.1991199299433764,0.19368584028495328,0.7868217054263565,0.19568542578489317,0.19374311495089686,0.20002455764240595,0.19365465402638884,0.8311258278145696,0.1961408672265496,0.19369874178595078,0.20211405432870844,0.19426582186865415,0.8655976528908897,0.19750535607734554,0.19433035462513604
51,0.9344533127360111,0.8700689112369704,0.8747833436936322,1.8287534682220896,0.9310993918887958,0.9423828125,1.5357142857142856,1.6296487203938042,1.7142857142857142,0.8966074313408724,0.9553030303030303,0.7839439655172413,0.8098759541984731,0.8608176515901838,0.945054945054945,0.7010309278350515,1.4064327485380117,0.6941919448188099,0.17913066063070776,0.19984458631972035,3.8765884395848964,2.579542629360805,0.6655269061696742,1.5078166225821559,0.9880368061111088,0.7085645497504677,0.9297262586736734,1.094578733780815,1.308676521182595,0.8140506214955482,0.8202293976394854,0.6945206480813777,2.35587278232725,4.8544758683459275,1.0596834522839862,1.1094307603043536,0.9116167122050669,2.3191231840127466,,0.6834302820771267,0.9875525066750441,0.8378462287034041,0.9378295686333762,0.7174028327261126,0.832389408652902,8.958743340430356,0.6227194589985194,3.149326213052041,0.8385742461139956,0.3711287426036083,1.1383055569559914,2.6996106146464305,0.4972602650450917,,,,,,,,,0.6241308085132041,0.0,1.1190011898466419,0.8947623136935259,0.9641873278236914,0.48045468293101773,1.8026068091772212,0.8747833436936321,0.42452223279826995,0.8434504413543038,0.9152478402203563,2.060607559225108,2.357193190408822,1.8591239660799341,1.8231703250845643,1.6526284977282517,0.9870797069815147,0.4816257362909895,0.9887269842880289,0.3169597851788266,0.3069942963527895,2.6142857142857143,0.3132329827106759,0.30835403162294783,0.31819739015567133,0.3069662309909513,2.1324503311258276,0.31381865034627154,0.30827325780981807,0.3153783516016863,0.3020570453757867,1.7840909090909092,0.3100807139934386,0.30353266634087384
52,0.9747134138311315,0.7539396191097257,0.7594218362884124,0.7707347679689912,0.7734987622119103,0.9767441860465116,1.0,1.0238095238095237,0.9714285714285714,0.9516129032258065,0.9739776951672863,0.6271471720735053,0.8788893335429562,1.709830216535433,0.9686411149825784,0.7973856209150326,0.29804104477611937,5.184336379726597,2.695178639479385,22.762728923062255,1.924217142313061,1.7106182824934373,0.8891422658560814,0.7899159630837227,0.9633166545883478,0.35534629821822317,1.45214833689489,0.7023104593840125,1.4811775347098557,0.7741068137606939,1.1640155849282707,0.6769803878947913,1.0417548464766944,0.8241564681092391,0.9530510209901644,1.4725203291992648,0.7657577397624769,1.487182206490163,,1.165534125851542,0.9535759192561715,0.8718314596331567,1.013977547875853,1.2013159068543549,1.3955590088545966,0.636982169555652,1.8248194914327853,0.7062188575264412,0.5289168543367977,0.4371944481928891,1.4448170097962643,1.405838656244393,0.5914059288098185,,,,,,,,,0.4474038162404781,1.1592592592592592,1.055084745762712,0.9789767544490435,0.9896049896049897,0.5949187963273452,0.6007964523605136,0.7594218362884124,0.9599283161275527,0.9144013554634437,0.6359058155295438,0.7911233626385854,0.9628248473969769,0.69605652173427,0.9540647341136929,0.6880068460144481,0.939957733094434,0.8922262284986695,0.8848570638515314,0.2419516924642095,0.22995948819615303,1.3529411764705883,0.2355209106415985,0.233191006598551,0.24308417737713112,0.2299334344995378,1.2717391304347827,0.23608817953892253,0.23316673821058442,0.24576854820329364,0.23085402766849739,1.1980499507874016,0.23791197413471057,0.2341432628728158
53,0.9669073916737468,0.7399127491369015,0.7437642957328462,0.915160450442186,0.7652364182014263,0.9692307692307692,1.6666666666666665,1.7195767195767195,1.5307692307692307,0.9444444444444444,0.9849624060150376,0.7204149590163935,0.9530019685039369,1.7864552893045003,0.9783393501805054,1.3888888888888888,0.287593984962406,0.82308390787737,0.5064828540817575,0.08361362803339249,1.6251680745967398,1.5093090186029192,0.9287248453352018,1.2272940672070751,1.0249482591268158,0.5841880459011473,0.8730453176870869,1.146498637839535,0.740388848478393,1.4850707869359063,1.9895938378512477,0.5335076719815485,1.2304758969984526,1.126110191302829,0.964980291167236,0.7656535989839841,1.3934860118130985,1.3578856647676876,,1.3072966287862955,1.0268516304002755,0.913201489377206,1.0408117752007136,1.1568777683595906,1.218483491896928,2.4827917590708237,-0.1400929513598422,0.23385583718499878,0.27127853663261475,-1.22638248373159,1.1775761907719104,1.4397276926723344,0.41090270880838387,,,,,,,,,1.2223394249576682,1.1450980392156862,1.1216053833213169,1.0293067226890757,1.0350877192982457,0.707610967062856,0.6806803227889233,0.7437642957328463,0.8126947606099891,0.6952479136683336,0.7967357873612675,0.9151827425931053,0.7874639942966735,1.1151977979422276,0.7716391829811262,1.0409755933649973,1.0298048381953606,1.4172797536502781,1.0041190000180134,0.3206711801818945,0.3245531410828476,0.8022627323024543,0.32494825328433236,0.3222565606081329,0.3219939031516236,0.3246053143344682,0.8237179487179487,0.32560347738014855,0.32230246389124895,0.3240348880341609,0.32462416979805725,0.8565838500870322,0.32665121668597913,0.32233467501484825
54,0.9694331849926169,0.7484766393037566,0.7518617678808501,0.7543965998497216,0.7720765607064058,0.9688715953307393,0.96875,0.9998744979919678,0.9765625,0.9635627530364372,0.9636307655970577,0.5942411991277012,0.8909537699774488,1.0964467005076142,0.9399293286219081,0.7937305575496532,0.3252032520325203,0.932534192587981,1.084513660013871,1.0039415487541652,0.8598622956391496,1.1335930385710773,1.3183430768200253,0.9783237338123774,0.9226753905237823,0.4877687414157587,1.2516903861247564,0.7693330534057405,0.6576947132092583,1.4296843166492939,1.0334043145424157,0.5888565659066607,0.9573776144737105,0.6891353963283677,0.9427093622676094,0.7634659130362818,1.279602629890964,1.162446841854663,,1.1378378276457575,0.9239643938268944,0.94169633886444,1.102927185411737,0.6603542516697418,1.1550239534911655,4.335990255188331,-0.31805083673348306,0.07685473207950655,0.15353538139634468,-1.4084457847780048,0.9531138893071798,1.2810243161130268,0.393439106163253,,,,,,,,,0.0,0.8522727272727273,0.9771819598675238,1.0851766513056837,1.0389578201045486,0.537353862724828,0.5412020188440918,0.7518617678808501,1.044519932848072,0.8421976132506885,0.6602640237009318,0.719815640684401,0.583658841354943,0.8606023154614114,0.6344720873886911,0.8214264177867483,0.925341690199185,1.0062753163526976,0.9073210394194107,0.30842153711368736,0.30602058614314587,1.0875,0.3032781237946265,0.3020413392715876,0.3092800991659258,0.30604890928970807,1.063063063063063,0.30369612683675273,0.30203445964594094,0.31261409570703846,0.30732377697924523,1.033628456042249,0.3062611051985463,0.30367389810902684
55,1.015912584777694,0.7003016989535968,0.7024889797026448,0.5439850995047242,0.6893327212248175,1.0058555677387915,0.6944444444444444,0.6904580918692456,0.8940217391304348,1.025987795495505,0.987287175571238,0.6686274509803922,0.9619087434304825,1.2162162162162162,0.9945978235462172,0.5618686868686869,0.4618421052631579,0.25012174227748474,2.4973763302134167,1.7090145997474666,0.09997293052771265,0.2604353182947402,2.6060233216447197,0.7458335732569589,0.9326849004817772,0.41037069864203257,1.327053940255636,0.7489259632987704,1.0087075805719734,0.9914127303563494,1.0996650554647578,0.5130204787689155,0.7265590665681834,0.3708319895406221,0.9080252407008942,1.062626394836296,0.9393299150408645,0.5012557913974148,,1.2271297552646598,0.9314239392839803,1.1042407435654111,1.1271929824561404,1.1394045391953314,1.0680142475642938,3.1405844544900763,0.6437150346676925,0.09176011519152903,0.24459304909564006,0.056749034527494,0.5337435667265592,0.6079212975985488,0.5489283037325633,,,,,,,,,0.5763149565926783,,0.9611336032388664,1.109016393442623,1.103134479271992,0.409235473283334,0.35855087901322125,0.7024889797026447,1.3763542417569261,0.810533407764173,0.6089129806030247,0.5103966054124186,0.51261464865064,0.5081936126366189,0.5589599525540826,0.5255253836707623,0.9301184828396618,0.816341886023332,0.8710584354729317,0.47251525069604594,0.4674615807884644,0.9923406690305998,0.4628058138148337,0.4575513990814054,0.46934348679450477,0.4716633944508434,1.0459770114942528,0.46330647585833684,0.46177844762622455,0.4740315701238408,0.47245853521122905,1.0255907121249286,0.46443462699377835,0.46178771105886174
56,1.001303532955736,0.8085224228057042,0.8142867145854642,0.5154782070705495,0.8074698971692689,0.9923076923076923,0.5131578947368421,0.5171358629130967,0.5375,1.019918699186992,0.9740740740740741,0.7149278887182113,0.8759033613445378,1.158025654782227,0.972027972027972,0.4845857418111753,0.31275303643724695,1.966807292404396,4.110442734220918,5.873632999588558,0.4787808165714003,0.9119864810750612,1.9054201406613873,0.661392849500232,1.0001233910629628,0.331598529149566,1.0955152759376194,0.9045975943380378,1.0072134194747295,0.9929202545327278,1.1641526235173174,0.9569400763698521,0.5614340401017572,0.25665411256409365,0.9080863314819083,1.0390580466659072,0.9616735987951006,0.8757026073539149,,1.332128171555776,1.001055813049632,1.1019417404592,1.0796144533432668,1.0268053176628034,1.5814548077730572,1.599741980533627,0.4459049808746588,0.22333937350447014,0.3236870543065116,-0.08228624444680321,0.8234186180248815,0.9008337371953156,0.6620250897215139,,,,,,,,,0.6933478527127737,1.2236652236652237,0.9561340153365783,1.0370987834077525,1.08955938697318,0.8041692204723713,0.3722577565614994,0.814286714585464,1.7812070054740672,0.8523059332546967,0.7744169878643432,0.4571473650490201,0.45878553682640266,0.4555279204903604,0.5303135056224804,0.5101872364286306,1.0020193355705915,1.7374724148287006,0.7845943786492864,0.17294205426462775,0.1741482795449133,0.29332714132296167,0.17399445563321497,0.17364111124897075,0.17352281503713268,0.17414151762972965,0.3718148276259656,0.1742925880540972,0.17363645080157275,0.17239930332248585,0.17232834415414666,0.4916173164957769,0.17228400586509315,0.17096322234476127
57,0.9627735152031828,1.0587525737618506,1.0643868518956805,1.1836201928678112,1.0996901732786166,0.9754038494586699,1.0333333333333332,1.0594596221871002,1.227671000565291,0.9530883502736512,0.9678832116788321,0.9390681003584229,1.1585845347313237,0.96875,0.9601415321030373,0.8537946428571428,1.1,2.6890601118215676,2.2409639527170344,1.120003377119454,1.2070476702453234,1.248661125029324,1.0394588281285282,0.7842909289937574,1.015770675856496,0.442841262736704,0.968247940729743,1.0354569545927008,1.1722630827969827,0.8527919337825041,1.1054476890859206,0.0,1.0995732686667012,1.2868594533925557,1.0212158964278746,1.116448822541249,0.893375243710702,1.5397241585959285,,1.0667788875125037,1.0154142472907204,0.9386891780948692,1.0188452285485166,0.9664419905028407,1.0756530281931407,0.2673907295076311,0.5079894280130222,0.28956735126893873,0.5995824543638049,-1.1889780939255337,1.4308180626983549,1.0651296588028243,1.1693098623008575,,,,,,,,,0.4880522172449112,2.1136363636363638,0.9723166585721225,0.9777777777777779,1.022631377061757,0.0,1.245690619386829,1.0643868518956805,0.9094713908980918,1.0474423041685128,1.0831834897055244,1.170330980187357,1.26704653970058,1.0807202696103615,1.2087287210548823,1.081287249105034,1.015023759673198,1.3058052578150703,0.9554273328415914,0.36688862996506466,0.36399127189817004,1.7844112769485903,0.36556550890857353,0.3610466493014445,0.36785537074001634,0.36394909663903874,1.6287425149700598,0.366033730392735,0.3610400682011935,0.36646565369074946,0.3630437844282326,1.4506704980842913,0.36319261384477963,0.3570390315970071
58,0.9751643061542533,1.0647577482335173,1.0696121235593736,1.197162113367937,1.0918752270913124,0.9835440001199526,0.9041666666666666,0.9193241469816273,0.8125,0.9839357429718876,0.9757948177328969,0.8969945355191256,0.9201179177451826,0.9107142857142857,0.9784172661870504,0.8833511016346837,1.4369747899159664,0.5010160547206876,1.2736624038013544,1.1329044960057617,0.3933410519285524,0.501626345392837,1.2753338260050127,0.9185974425014878,1.0549551895820666,0.5150177875924202,0.8463765800767012,1.168838325686501,1.6659310614812712,0.5211401333359402,1.150572567134056,0.7429374241141279,1.1315398406035646,1.369488837398822,1.0255716807378326,1.4501887654495964,0.6397241449641895,0.96259744411502,,0.957600532117926,1.0538120635320984,1.0283989822614925,0.9766493699036323,0.9554256877436513,1.094732877822985,0.5574564906956918,0.25063986011012584,0.13215328971636636,0.0938212866027629,-0.15295735094175675,0.7235122082870917,0.6629714495429786,0.3068570676079206,,,,,,,,,0.9123541235228412,1.8115942028985508,1.026957177890964,0.9601984469370148,0.9988437577508353,0.5854014231551059,1.2945336489043437,1.0696121235593734,0.8837702302567072,0.9841180235541539,1.1564544549737785,1.2102854095984577,1.5620752905912494,0.8736859839292083,1.417178067825688,0.9412677963191289,1.0525218682801425,0.9536009629093372,0.9541044061510986,0.44956844885657843,0.451099697458724,0.25333608413955366,0.445597797189051,0.44748718844630797,0.4538940179641865,0.4477812569969278,1.2580645161290323,0.4460993316432358,0.44391807966723473,0.4570592534055494,0.4479607540730115,1.1624472573839664,0.4466295211420854,0.4432339427343881
59,0.960416765591529,0.8676841399373126,0.8719263138979986,1.2370802840380684,0.903445273290494,0.9525862068965517,1.2857142857142858,1.3497091144149969,1.25,0.9470588235294117,0.9695258019525802,0.5246079306387862,0.9226588373396223,0.9507772020725389,0.9862204724409449,0.9742298578199051,0.7198275862068966,0.17432597827189442,0.5845307572901667,0.8711721183000313,0.2982651669271567,0.7056375250609365,2.365944914352415,1.122967626741421,1.0169283227140251,0.5406348357848751,0.8580730385594969,1.1645916271607928,1.0318748723537703,0.9770509623034553,0.958333816465833,0.7318410135070188,1.3942298296146052,1.6948685493556614,1.0058109122936636,1.0000610659161204,1.000058512470337,1.131767085795691,,0.804724046044051,1.0185959138850813,0.9344598663855472,0.8745896960182673,0.6451880418922249,0.8258203177984578,1.1288189590794557,1.5413643575387526,18.426117840055717,7.65378210985408,3.8893725037378024,1.336114608529224,1.2049919053936695,2.2147829396178054,,,,,,,,,0.6096958983279928,1.1625,1.0609584214235377,0.8720602024949851,0.7948235974551763,0.5749923389813323,1.0599357965452239,0.8719263138979985,0.7172657187801765,0.8078063441961536,0.9410779465437462,1.21562795931733,1.2348382164021683,1.201589754656772,1.1763443969689906,1.1763466230762405,1.0203082616689352,1.1493478764761684,0.968336764900958,0.32552023349254466,0.32094753770042656,1.6031746031746033,0.3169045241953279,0.31523474920869354,0.32649928565299124,0.3209010383348966,1.9789473684210526,0.317322721289898,0.3140699375631066,0.32984025999909417,0.3224451502262393,1.5836783439490447,0.319783281000652,0.31563525664883296
60,0.9933077514470638,0.979678843373547,0.9849787619981815,1.0945171103594324,0.9862793316573003,0.9861702127659575,1.03125,1.0456790073173456,1.1145833333333335,0.9888690476190476,1.0053477653678513,1.1960585585585584,0.9752776684594866,1.0569948186528497,1.009727626459144,1.1578947368421053,0.6896551724137931,3.326893893312614,5.84741344499783,5.133227754299593,0.5690583966828608,0.988909795450386,1.7380108384795268,0.6379991766219524,0.9897291388191589,0.38913763319602057,0.9276277517678504,1.092892254321979,0.8540912574321405,1.1415122064432897,1.2845509104249953,0.8112743950559446,1.1126453894506594,1.2193375661509713,1.0075851130827385,0.8620191180275616,1.140015129112824,1.2814788548146514,,1.0290456930214376,0.989408780901774,0.9973978900409168,0.8695907042723632,0.6841805650612345,1.1899703153532721,25.95222963033061,0.21350500619926874,0.588072723629678,0.6262524893259972,0.03850519518678761,0.9293498645849649,1.4759286075811602,0.7770296095969211,,,,,,,,,0.8525061422538818,inf,1.1181115928227747,0.8234900754962252,0.9700351051251657,0.6977290295756284,1.079425673523849,0.9849787619981815,0.8987957585838231,0.9485906232942443,1.0296746662045826,1.0958888713394104,1.0127710752541401,1.1708506126612812,1.0014394272141347,1.1516672370888483,0.9891160261731772,1.69521722914339,0.9588674629153835,0.3207163370122661,0.312121183595535,1.4000042999656004,0.3170565014151784,0.31367673542894564,0.32157217500828655,0.3121248235728447,1.3216216216216217,0.31747795497265136,0.31367613203591493,0.3202064457717958,0.30880837860023147,1.238031233998976,0.3148428540988494,0.3100962530677699
61,0.9718947965375295,0.9345610835330702,0.939576215972957,0.48381754311864156,0.9615868688736177,0.9579646017699115,0.4772727272727273,0.49816327638908287,0.5104166666666667,1.0081243836517038,0.9456066945606695,0.5436372621695084,0.8552612356935783,1.141219852501495,0.9034749034749034,0.46823805988616674,0.37222222222222223,1.5948784053551006,14.294907635692907,8.424765403219967,0.11158848798223092,0.5093588279670456,4.565541644541735,0.5693804069591285,1.0469564252860468,0.4221022355110388,0.9547336507562416,1.0525105830022077,0.9911092112664514,1.0079403868078143,1.298902443852762,0.0,0.456723276390422,0.1959872693937692,0.9126901475704896,1.0068452664418652,0.9943498142183944,0.6751775957963815,,1.6158660910176574,1.0480804408918358,1.0758392244445902,0.9191593826479163,0.9757863668604358,1.8221469455991308,5.555108302653037,0.4857136831887147,0.591846299273335,0.8774204442049967,0.43522312923326456,0.7203698761313255,0.8371288379225977,1.0116429946969792,,,,,,,,,0.0,0.5625,0.9327639751552795,0.8916235059889057,0.8805552681273767,0.0,0.40317545275927547,0.939576215972957,2.189636990123235,0.9187373485875767,0.9646180504568092,0.42910868557370585,0.42717665362468654,0.43080590135233027,0.4689569124970938,0.46604820928035207,1.0492155128513216,2.1436451370481135,0.771429442926362,0.15246960801206408,0.15564569769017716,0.4463177676133745,0.1543703497822869,0.15367994464158996,0.15300237946058537,0.15566203258338224,0.5111524163568772,0.15463984071643488,0.15368492328321737,0.15198080902461242,0.15359209760854156,0.604496445176113,0.15298005667924833,0.1514851287974589
62,0.9388670695031008,0.7989193791083475,0.799502037064316,1.180896692063297,0.8509400447044064,0.9353448275862069,1.1785714285714286,1.2600394996708362,1.2788461538461537,0.9343877509796792,0.9470185881370092,0.7787755102040816,0.7118663091600674,0.9505208333333333,0.974,1.0180817610062893,0.7777777777777777,1.3917246121042182,2.136920776328545,0.4918952537496726,0.6542955753347924,1.003546574065634,1.5384143472652665,0.8445138281989837,0.8995179053007758,0.7262598507187296,1.1278560081285152,0.8359917504649736,1.1718415987045652,0.8616042261402699,0.9603874287355341,0.528569670851261,1.4109955283195448,1.5914488744705966,0.9895467733216325,1.1534622681875235,0.8699133242250978,1.0984890645594336,,0.8386513385177844,0.9058265664276701,0.953296067379213,0.7453666125541125,0.5550953434141117,0.9017975383825408,0.2881851955366091,-3.1917937491725707,8.298715110424359,7.300412921038529,-0.7832801960007297,1.664582982233545,1.1253242813576436,2.5922844529050177,,,,,,,,,1.1554952717127158,0.9298245614035087,1.0088492824666098,0.7758038626831668,0.6651905626134301,0.502690697592789,0.9017854592137359,0.7995020370643161,0.70882152391521,0.8519806233624083,0.7334831461808937,1.127911087910656,1.2209454444329242,1.0468656179557116,1.1780744189999637,1.0229996372538892,0.911936682120001,1.1842714354179302,0.9766423703544793,0.4305199838980874,0.4129634993439508,0.9305019305019305,0.41697066670409605,0.41333770392786706,0.4314919148623314,0.41296368286400503,0.9380376821898329,0.41746836129102194,0.41333770355482424,0.43345895990707645,0.41293109068321454,0.9519758682328907,0.418479140562224,0.4133207691467279
63,0.9630969780762394,0.9197776681176748,0.9197747988051445,1.1219990771808224,0.9550208224668156,0.9637404580152672,1.10989010989011,1.1517206051367541,1.2,0.9549441786283892,0.962110486472762,0.5702066999287241,0.9520970832446243,0.9473684210526315,0.9835766423357664,1.0325520833333335,1.0543859649122806,4.2133612798577245,0.6519300186184493,0.5642802079948608,6.463062919114107,3.8178542765281875,0.5907258272853644,1.1512538086474782,0.9668404665372278,1.1389640452258485,0.9536297758725308,1.060543661927046,1.206582005990057,0.8469493531700342,0.8302076584702313,0.9014230849675589,1.2352006822652317,1.403269592095322,1.0043184403324337,1.1045333908388728,0.907105872890396,1.8896372566106505,,1.1378339046206896,0.9680705337866393,0.9026415588472639,1.0241379310344827,0.7185329883666516,0.7977452492728557,2.6935706793630705,1.2602929595071108,1.5587306295259085,0.9563582923374213,1.487980088061227,1.4018318687071218,2.026022235888436,0.8917544988575505,,,,,,,,,0.0,inf,1.2672413793103448,1.0491803278688523,0.9943181818181818,0.8263251847656748,1.0449329839320045,0.9197747988051446,0.809607969121701,0.8985434966566188,0.9476073214337776,1.1360701830343185,1.24787997921616,1.0454841063627351,1.1264434299955388,1.0207951126594672,0.9692913562555452,1.8257750374304593,1.0191273593004444,0.9117251384437556,0.9131921994514534,0.735497623707017,0.914760114762398,0.9179241597436067,0.9120695284967931,0.9132146435897317,0.76,0.9149187592319055,0.9179518072289157,0.9126659072835808,0.9132232281902951,0.8017884243026846,0.9152273086586247,0.917898984957001
64,0.9647574138306518,0.8425735774193445,0.8450533318112103,0.9839498384882139,0.8733527883178778,0.9708171206225681,0.78125,0.8047344689378759,0.8225806451612904,0.968421052631579,0.9586466165413534,0.5983102918586789,0.9628378378378379,0.9541284403669725,0.9587104509940435,0.5043062200956938,1.2473544973544972,0.29804510065454226,0.5996089604785069,0.40716475612776937,0.4970793325403221,0.6527075930986681,1.313089283053454,1.1765737693960978,0.9958174786534963,0.756415518797829,0.9804916078157044,1.02005028529361,0.9476264179917646,1.081827074679627,0.9912521958440657,0.4599808638897114,1.177608774045995,1.1718156453251338,0.9834038402829036,0.9651851563743963,1.0478538792245142,0.9540610242105454,,0.9579235261543018,0.99578796300913,0.9737611245876864,0.9710259722948515,0.6922052597340064,1.030057860917639,0.6216726507405621,-4.21304162911443,12.564233211905155,7.462734700044912,-0.7581733734020335,1.4833610711037206,1.2181831000643044,2.16234752476598,,,,,,,,,1.3604878046012416,3.0844155844155843,1.0191148775894538,0.9728401928068224,1.0140161725067385,0.6207557974159785,0.8408971368502962,0.8450533318112101,0.8492300735809928,0.8367587440128731,0.8534561396548761,0.995081165552997,0.9686727039211352,1.0349927485564858,0.9358375580871494,0.9750901523150337,0.9957630863258561,1.612589582292113,0.8910729249312738,0.6415834618586407,0.6307054328637779,1.3433333333333333,0.6344236067647302,0.6329390573060049,0.6458426666530126,0.62744467389389,1.8224299065420562,0.6348620845116603,0.629631154289478,0.6427856347850729,0.622399621892835,1.513074827219564,0.6307609457112363,0.6244597209072573
65,0.9576565204993802,0.7647139235085432,0.7690906753639495,0.5715907260687787,0.7985263057675156,0.9525547445255474,0.6,0.6298850574712644,0.675,0.9622792461775513,0.9423347398030942,0.9948595836129019,1.0741525423728813,1.2030456852791878,0.9169435215946844,0.7418639053254438,0.325,0.16644624898202093,1.6695000639744402,0.5762857122917024,0.09969760235232787,0.1991579890987726,1.9976259232623437,0.8383313476982234,1.0004995514163435,0.30882930557279464,1.1821112208704374,0.8418823832316885,0.9640706548286574,1.0325922378671923,0.9352592461345288,0.6901333576778175,0.5850562574879952,0.26325163206021873,0.9040568271282758,1.0682862862124547,0.9387747272411047,0.36451285376032627,,1.262239680515981,1.0009288158720442,1.0682685477170493,1.0693444486547936,1.9279642533272323,1.1878928557300248,0.48834384545564435,0.3003922563354607,0.010531403802030857,0.04953618551971267,-71.47163661124759,0.42437838787335946,0.36872364810553004,0.39494964284229084,,,,,,,,,0.0,0.0,0.9301724137931034,1.0274502579218865,1.0514705882352942,0.5546942958170047,0.3460607684731839,0.7690906753639495,1.709240149284446,0.8361930990797191,0.705676753587885,0.4499600454055245,0.4418026733736339,0.4572325342855502,0.5709952711906582,0.5352652512322769,1.0014241586972408,1.5124180109476362,0.8263681846714983,0.3364349468179053,0.33245076986064326,1.0098522433132011,0.333275531248568,0.32878027492908574,0.331791860439763,0.3381727890600641,0.2522255192878338,0.3337304509812416,0.334329791180257,0.33369573210212167,0.33819119194796216,0.3757563533682937,0.3347103396755263,0.33434793044009514
66,0.9829034072867212,0.9107089702618629,0.9173752658271044,0.7747753130586388,0.9265498150788296,0.9860213596820367,0.8723684210526315,0.8847577355487016,0.8608906525573192,0.98203125,0.975,0.913386024676065,0.9917346165260672,1.1487179487179486,0.9533333333333334,0.588474025974026,0.4375,0.4034427616177969,2.6542187046362784,4.255835320701197,0.15200480468642447,0.2999893710315412,1.973612434876545,0.7413211321547044,0.9797353494918908,0.22325711437769302,1.2210280839403813,0.7892111162023943,0.6858777613866704,1.3468985441808967,1.1525477941441415,0.5216312550443538,0.7743917773806099,0.5501329608286916,0.961132607885816,0.8556478787408941,1.153896005097752,0.577205133069376,,1.2168549621255496,0.9804323475373121,1.0351406913077073,0.9568385248836377,0.8576347158045889,1.2360684660768204,0.11176823404503775,-2.8093623011276625,0.2228525905242844,0.8678468509982746,-0.404923223389836,1.0353411461713256,0.5072954816585331,1.2971340141408103,,,,,,,,,0.6323631056426082,0.635,0.9122908273226833,0.9131545338441891,0.9358288770053476,0.5018028705092247,0.6517093008431425,0.9173752658271045,1.2913386048240165,1.0138336316855965,0.8150747134870547,0.7104064774078448,0.58830435880842,0.8244471310043409,0.7079014424008203,0.8220768220576469,0.98123631460125,0.9236818454054674,0.8536411786951711,0.1620033538754478,0.16402526058294464,0.7382700092669365,0.16319653321450137,0.16195394694722465,0.16257741516068203,0.16401967874072323,0.7711864406779662,0.1634859983183081,0.1619556750642893,0.16378180619678423,0.16402710891532823,0.8210194792587959,0.1640963184161161,0.16196187440951884
67,0.945906128273362,1.1578670172726386,1.1640146714281436,1.3698280785727297,1.2240823720913894,0.9502762430939227,1.170278637770898,1.2315141478868168,1.120408973595394,0.9397347480106101,0.9581560283687943,1.0972501676727027,0.9645081848471679,0.9006666406767767,0.9605517111519088,1.05,1.4444444444444444,2.4038640208639954,1.691189430482022,7.353687422962121,1.421454708766427,1.3084773225687638,0.9205245051616606,0.8464098522258353,1.0326140022419696,0.5494841787777955,0.802569620206514,1.1965920341283305,1.2075852621646057,0.8014428028689073,0.9823483600108318,0.5967913655977437,1.1672324944714587,1.5858521446532823,1.0435937364828147,1.0983284474090251,0.9047538140980962,1.2870038759494535,,0.9400958953771679,1.0310706863599628,0.9437430283687791,0.9101736512126711,0.7550698513833627,1.3014935990475447,2.6729762052774277,0.12145597577469883,0.9508398628807068,1.0678272868574732,0.024752518395830987,1.0650989838649543,1.2883683757288868,1.1463006026886489,,,,,,,,,0.8702444877229685,0.0,1.1608011783581893,0.8793828892005611,0.983888888888889,0.6074504183028127,1.5814733221766102,1.1640146714281436,0.8567519812564036,1.0429067508965049,1.2734180579721,1.358639793804511,1.4929629051132354,1.2162668935282477,1.360670517542371,1.2349434811300841,1.0294874598051245,0.8806108664398624,0.9532919423280412,0.35395508937620296,0.35412160967675654,0.8009523371365477,0.3568566493196008,0.35471405615532925,0.35493146820954624,0.35410571830923687,0.8298755186721992,0.35734996318114876,0.3547147981025107,0.3531951613802159,0.3501206854055902,0.8626858347949553,0.35408578157452025,0.35042187959357846
68,0.9485804161618737,0.8804755527364725,0.8859456262308503,1.1783173422135607,0.9282033844837683,0.949814126394052,0.975,1.0265166340508804,0.9458333333333333,0.95859375,0.9508896797153025,0.9694329106347961,0.8330120511141823,0.9288888888888889,0.9387755102040817,0.7167235494880546,1.0,1.126340048311858,2.540520817575437,1.489724074399192,0.44337251466977745,0.7366226286802484,1.6614253328854383,0.7617938400610372,1.044982541797622,0.4946900162100152,1.0104717539400578,0.9894429432435395,0.8596141574818605,1.1296460632361807,0.9714186378543705,0.5705465409681142,1.3305466999568165,1.5684319098970518,1.0040587198964679,0.8812995342657889,1.1121017066828651,0.9325154421980977,,0.9728500988947654,1.0473299224184789,0.98630527624667,1.0182738496883235,0.6997290575062509,1.1993047900984246,2.9958301915334364,-0.259797566832236,0.0835854939306164,0.12494759312437703,-2.0807049610511292,0.6321500178676321,0.8698761069648386,0.3849099154268776,,,,,,,,,0.6194078404973018,,0.8927536888063203,1.007632897954796,0.9325513196480939,0.43396797960882316,1.044345587366064,0.8859456262308502,0.7515717254574219,0.891142444134587,0.8818175997218638,1.1787890452780343,1.0929182786432938,1.252873977729228,1.043535633150864,1.1722435077119193,1.049704979007873,0.8498434428428208,0.8879476197459331,0.19533533105766424,0.1996524070178315,1.3795529801324502,0.19653925948553463,0.19425368713847968,0.19599752746897378,0.1996474235935397,1.309782608695652,0.19686001094161504,0.19424854938468405,0.1973780654153103,0.19966132788584867,1.2290823372541548,0.19755173589258956,0.19424997130724203
69,0.9840746410969206,0.9854221309392748,0.9911236583173502,0.7957170272931644,1.0013692963786285,0.9809885931558935,0.7777777777777777,0.7928509905254091,0.7428571428571429,0.9860557768924303,0.9834895496660203,0.94320987654321,0.8789800995024877,1.0777010050251254,0.9495680894308942,0.7264397905759162,0.6173780487804879,2.1719634805287695,5.347351104125545,7.513927242612114,0.4061766004128824,0.8395225821436387,2.066908596359868,0.6134147418763027,0.9682977766613892,0.42756832332721095,1.0397422916248888,0.9622287835528591,1.0978833784922766,0.8850978950800328,0.8965707233021348,0.6325077274734291,0.7444720179058837,0.5493178817608089,0.9709753443135396,1.0714441385406475,0.9195420603534092,0.7948366208048991,,1.1241531052629226,0.9687017598286655,1.0437708178125247,1.0823529411764705,0.7016351867765085,1.4026027769826421,0.5458467096190986,0.3006581870524953,0.13175817426376252,0.4756543010708587,0.38096678882292767,0.8140960352666184,0.6009907641752075,1.1102388849473808,,,,,,,,,0.7561550045396139,3.2578125,0.8363636363636363,1.0710280373831775,0.8878143133462284,0.5723502551022807,0.731311970398163,0.9911236583173503,1.34323828442797,1.0107649878657905,0.9723621323183459,0.7378618726511788,0.7729832765051513,0.6939678320314596,0.8134429108110073,0.7535442996811146,0.969084835389282,1.0581467346218743,0.8423593728442784,0.3112364778997665,0.3128432682011868,0.80644750254842,0.3102148700528633,0.30913028154417654,0.31213706934399643,0.31283307303172636,0.8581560283687943,0.3106883876021935,0.3091333951089803,0.31397349888152076,0.3128411308118364,0.8995123291434851,0.31162240120288653,0.30914731180629695
70,0.9331120184452684,0.9555642998464887,0.9613607750270466,1.4489631159497447,1.0240617086144057,0.9509433962264151,1.0919117647058822,1.1482405462184873,1.197144075021313,0.9355731225296443,0.9490909090909091,0.7728556866171543,0.8412901742893388,0.9468085106382979,0.9,0.7779737903225806,0.8061224489795918,2.011513262502363,0.6670734030417937,1.073763035372022,3.015482626169196,2.1259729264326825,0.7050491096465852,1.1179205100773948,0.9813869556195848,0.6372905122690296,1.1431166807197286,0.8728437585291671,1.027328430885964,0.9641613449700064,1.0057968187553747,0.7814757270919321,1.4938144733824361,2.145255316837702,1.029876754305727,1.054424882183524,0.9338390324662369,1.5766168430224092,,0.8369911886152412,0.9824963309657946,0.8826144440577364,0.9059657501828665,0.6522590167863983,0.8306101594203027,1.0193435055620634,0.6274554411059992,0.5914440238685189,0.3636494561463152,0.422723688538836,1.0377942215297011,1.0651767488655564,0.5353377583591794,,,,,,,,,0.4956307206958832,1.5877192982456139,0.950129665647865,0.8621927854541764,0.8263534819531158,0.6624185994315721,1.3805968955267383,0.9613607750270465,0.669431784698261,1.0279080533850364,0.8982115002724996,1.4360884745257552,1.4555772599517203,1.4101205760645399,1.3938087102017152,1.3116915616742872,0.9837194096300115,0.8579454660986359,0.9022676725007517,0.23928531239853834,0.23602934559022734,3.209484649122807,0.23738829298889333,0.2330424131067218,0.23632267213665684,0.23953725018302513,0.609375,0.23776886343317488,0.23704055307278993,0.2350391272981469,0.23666269213031002,0.7461534415191604,0.23566786180545482,0.23413741678581862
71,0.9732486247193177,0.9669980318917053,0.9725581371874505,0.738938185766324,0.9935775991161404,0.975609756097561,0.8235294117647058,0.8441176470588236,0.7777777777777778,0.9803149606299213,0.9602888086642599,0.7686806506802215,0.8982280431432974,1.061904761904762,0.9499164777472855,0.5593398876404494,0.84,1.4602452180752088,5.648138278482122,9.024543535899518,0.2585362014399877,0.39920102118260037,1.5440940915964714,0.6089027343582416,1.0173010960579623,0.6175979774184853,0.9913369260539178,1.0093504760274574,1.0452638843817672,0.9520469022460225,1.0587895285638598,0.8990095458908592,0.6554004060552192,0.4177604511203626,0.9549901941711259,1.025874261351023,0.9725534177200201,0.5568583237921451,,1.2177458460362467,1.0167298782131073,1.0270283046515503,0.9015766500775068,1.0654041944785613,1.5826884078884043,1.0174043456692416,0.07743108832971254,0.0017642179397570812,0.04005890130338298,-0.16688681413141881,0.3863451282058905,0.3934149900417009,0.3422559370870889,,,,,,,,,0.7868812250434865,1.391304347826087,0.9649311531841652,0.8823153181963543,0.9812469317623957,0.669100256347918,0.6199218842439915,0.9725581371874503,1.5257883257509937,0.9684637859025285,0.9772141134960308,0.6374130500910631,0.6516759986915687,0.6219362123273737,0.7286892656152283,0.7094947836600324,1.016151658313423,1.374401534753933,0.8541108298719228,0.32046359120025225,0.3274537948028733,0.34052231718898385,0.3227094150476217,0.32258680297792014,0.32137360246656066,0.3274464187646903,0.4005602240896359,0.32317958865755847,0.32259364527213336,0.3250263759915003,0.329250301115231,0.4952884769766528,0.3260736249127758,0.3245391311769224
72,1.0397433380340466,0.9825108083808969,0.9847604715905763,1.160197500106288,0.9449552340532366,1.0432521196630526,1.4558823529411766,1.3955808454034881,1.375,1.0165745856353592,1.054228855721393,0.7272727272727273,0.9372635445362718,1.0741935483870968,1.0241807713115387,1.1124060150375938,0.8931372549019608,0.20720769892431018,0.7166685059277054,0.5129295507407499,0.28926937487910226,0.8397345786996464,2.903732657306466,1.060490803629003,1.0964536010750325,0.6198050334998195,0.8435745679665385,1.1979781692817832,1.0708648156764213,0.9434115239019631,0.9838980406822615,0.7166253463179046,1.2352705260170944,1.5026111828803073,1.0182018659713832,1.0530085901535107,0.9564238187715617,0.9935774623010538,,0.878759272616118,1.098052506439847,0.9887329205979498,1.1283073802413375,0.6542771436675815,0.7681887012562699,2.030467111363806,0.10359460986204748,0.30324126075784497,0.21860316276324165,-0.4018047448116268,0.8005495300796199,0.9560737317829622,0.48972582871385234,,,,,,,,,0.6135759676138656,1.4412337662337662,0.9425087674327025,1.1061799093295155,1.0665999124903236,0.5705307654342215,1.1978740309498006,0.9847604715905762,0.8095626212798539,0.9066895228051817,1.0804446245470938,1.2164166292829972,1.2583416686546354,1.1811100078544592,1.2339914867579607,1.1760651540024347,1.0993269982741913,0.8694283047177993,0.9549264015368141,0.29389138951502103,0.30204919856181955,1.272198731501057,0.3034471916584204,0.30095662200097534,0.294957312574314,0.30206771676418565,1.21301775147929,0.3040054203596493,0.30097833469406615,0.29791246226269447,0.30316928716961605,1.1443708841249824,0.3060360867981571,0.3020742712106778
