,video_name,video,t_maximum,r_maximum,p_maximum,p_wave_range,r_wave_range,t_wave_range,p_std,t_std,r_std,r_mean,p_mean,t_mean,HRV_ShanEn,HRV_HTI,HRV_ApEn,HRV_MFDFA_alpha1_Mean,HRV_SD2,HRV_HFn,HRV_CVI,HRV_Prc80NN,HRV_HF,HRV_Ca,HRV_MadNN,HRV_LFHF,HRV_SD1a,HRV_S,HRV_SD2a,HRV_Prc20NN,HRV_MedianNN,target
0,10,1,0.304966793,0.303867729,0.303361287,0.300593446,0.300582601,0.301179025,0.302031096,0.301567588,0.302032493,0.298999641,0.29795651,0.30054839,0.911528924,0.714608774,0.677244272,0.865874166,1.060026718,2.175674602,1.011948248,1.005050505,3.627621148,1.049158096,1.0,0.410145325,1.077185837,1.123119362,1.086575801,1.022222222,1.018617021,7
1,2,2,0.463791672,0.463156791,0.46258789,0.45890195,0.458871924,0.457956798,0.450558534,0.451040809,0.450569668,0.468511312,0.467389197,0.469264695,0.900129347,0.989480605,0.828077461,1.189458014,0.837870237,1.642232428,0.939025987,0.894635359,0.450490169,0.992887845,0.84375,0.572625409,0.64378409,0.536757049,0.835035569,0.899085503,0.896907216,0
2,14,3,0.173535025,0.173054033,0.172699087,0.171435163,0.171425035,0.171590069,0.175865824,0.175869889,0.175853397,0.177194227,0.176460486,0.178162498,0.892551697,0.732810164,0.422846684,0.901581107,0.904748523,1.962004236,0.988427724,1.027901726,4.489242764,0.753055051,0.923684211,0.717908027,1.020286548,0.88880361,0.762873928,1.036170213,1.021278195,2
3,15,4,0.364579612,0.367102936,0.366418069,0.362371231,0.362476371,0.359213718,0.361791678,0.35872887,0.361760662,0.369620518,0.368458794,0.368276512,0.911418657,0.728547672,0.731924895,0.97647028,0.820520462,0.886362793,0.957134756,0.948635094,0.717086987,0.785177217,0.8125,1.22286445,0.716231104,0.652117902,0.72641668,0.95086202,0.946859903,5
4,0,5,0.448406404,0.447229683,0.446739506,0.443626959,0.443525583,0.443794204,0.455058264,0.455848974,0.455074086,0.454088558,0.452918681,0.454329381,1.007655362,1.121201657,0.743647822,1.030025289,1.302217182,3.581607935,1.051062313,1.0755,1.381814306,0.980382588,1.238095238,0.086450379,1.4286528,1.64359598,1.264587173,1.05136612,1.075600867,1
5,6,6,0.319728372,0.317407232,0.316912431,0.314109772,0.314084115,0.315108419,0.321362759,0.322628803,0.321424811,0.308343837,0.307331443,0.311326914,0.918385977,0.794759334,0.642802053,0.863374354,1.215947418,1.745015275,1.083625562,1.071939262,7.842670962,1.120594538,1.829861111,0.513547682,1.669242821,2.355267203,1.313944424,1.0,1.059343434,6
6,17,7,0.313416099,0.31678159,0.316184877,0.316416381,0.316573385,0.312577519,0.322380539,0.318434924,0.322466622,0.315819708,0.314716286,0.31335409,0.97999211,1.239862757,0.53126939,0.715895869,0.918232114,2.533922734,1.028610832,0.977477477,10.06821795,0.989012944,1.8,0.551986403,1.356119613,1.32861908,0.922637768,0.943368829,0.953703704,3
7,1,8,0.153393631,0.152797904,0.152464876,0.150475547,0.150523476,0.150570561,0.154988501,0.154506558,0.154981005,0.151750221,0.151139879,0.153612751,0.89467094,0.477975284,0.444697631,1.231480227,1.145214311,1.507597236,1.051033335,1.073223978,10.98167728,1.071531394,0.95,0.928085631,1.338381613,1.666374202,1.195092578,1.034482759,1.10828877,4
8,5,9,0.419585415,0.416816056,0.41627078,0.415069584,0.414980059,0.416444913,0.425252152,0.427442759,0.42530555,0.417702247,0.41652847,0.421763091,1.021495832,1.631205674,0.667327743,1.014599572,1.302254765,3.005606867,1.042089185,1.003395239,1.60251012,0.913440729,1.857142857,0.221217435,1.110372367,1.515488126,1.245340866,0.928191489,0.994845361,8
9,13,10,0.906869187,0.91819493,0.917927842,0.907494076,0.907268096,0.897312079,0.908958254,0.886655099,0.908601959,0.933877755,0.933557287,0.944873245,1.137293872,2.013817508,1.117391178,1.119720385,1.026745152,1.025619341,1.020238501,1.026053447,0.213197719,1.1044669,1.875,3.985087603,1.213350403,1.238730096,1.167405875,1.004950495,1.011011478,6
10,7,11,0.629339891,0.638287855,0.637655308,0.64005466,0.640167278,0.630170947,0.631376645,0.621674159,0.63162309,0.644240171,0.643155557,0.625809596,0.920819365,1.17289272,1.306363343,0.938264919,0.752590908,0.950651727,0.909516476,0.951729168,0.131752693,1.02915717,1.5,3.79020072,0.488389809,0.348974584,0.675651301,0.920792079,0.939613527,7
11,4,12,0.334649499,0.336673585,0.336088452,0.335844516,0.33586636,0.333373417,0.336340214,0.333656421,0.336327711,0.340219475,0.339068036,0.341329811,0.869801679,0.758080452,0.64339454,2.036038197,0.620627528,0.765336325,0.829918894,0.890410959,0.559053905,0.937694352,1.05,6.343967431,0.309894681,0.149963477,0.502074695,0.892857143,0.886792453,2
12,9,13,0.165216577,0.164193447,0.163823414,0.161663235,0.161735679,0.162307714,0.164837133,0.16598679,0.164843913,0.168174917,0.167460242,0.170083331,0.852274148,0.633333333,0.415176067,4.079788793,0.67985766,1.580669718,0.890488857,0.956398104,4.515574792,0.908769173,0.611111111,0.979796695,0.545399637,0.312014389,0.605624625,0.986842105,0.963843284,3
13,3,14,0.355557583,0.357630744,0.356975981,0.353518237,0.353577975,0.35103579,0.353124836,0.347749156,0.353117061,0.353974293,0.352742834,0.353844735,1.022999058,1.295149254,0.702528535,3.159111332,1.154103622,1.542675543,0.918146094,0.938151726,0.42889517,0.99695354,1.75,0.848626147,0.436230438,0.415631326,0.982331967,0.891428571,0.899305556,4
14,8,15,0.197347618,0.196414178,0.195996013,0.194944378,0.195011583,0.195123335,0.197982073,0.198069262,0.198051143,0.199086511,0.198326811,0.200459702,0.861317833,0.782903439,0.655623922,1.446979639,0.651852926,1.438446565,0.827938954,0.983568075,0.332912631,0.95687006,1.0,1.067745417,0.294708464,0.163011532,0.553414607,0.976960784,0.985645933,5
15,11,16,0.310900011,0.311273456,0.310723968,0.309592466,0.309699536,0.308372072,0.312113934,0.310340303,0.312125092,0.316751324,0.315654822,0.316598093,0.970279402,0.812830688,0.587586583,1.049118854,1.271384602,0.99664313,1.037774375,0.975490196,1.33539003,1.069391829,1.121794872,1.491640175,1.204283887,1.432702012,1.313894001,0.96,0.955528862,1
16,16,17,0.236769885,0.236312563,0.235843277,0.233223061,0.233200034,0.232900511,0.231341573,0.231595205,0.231367407,0.231455958,0.230573865,0.232773018,0.870951306,0.672492669,0.606707477,1.604332502,0.683475508,0.847402759,0.934400818,1.000901705,2.595906276,0.944916692,0.866071429,4.926261336,0.716136968,0.464875548,0.640888644,1.054450262,0.983763997,8
17,12,18,0.324867524,0.327692794,0.327121847,0.325774201,0.325823279,0.322021501,0.329396488,0.326476532,0.329411875,0.338953758,0.337826504,0.33798749,0.917091274,1.242559524,0.937839501,1.943339376,0.862396371,1.452222965,0.868984955,0.931662516,0.426057345,0.920500872,1.458333333,1.009257682,0.289535542,0.228544865,0.745309072,0.891625616,0.904761905,0
18,10,1,0.305319688,0.303432153,0.302988009,0.29996259,0.299944867,0.300933249,0.307274475,0.30891796,0.307266538,0.307873636,0.306976379,0.31024248,0.969916095,0.896353337,0.512555883,0.934224831,1.364679348,0.682520022,1.040972456,0.992487437,0.669210797,0.980335765,1.333333333,2.528544308,1.08474076,1.52940913,1.356193559,0.960451977,0.973262032,7
19,2,2,0.462985988,0.45937514,0.458865015,0.459631994,0.459600739,0.462172939,0.46812869,0.470932422,0.468112612,0.458195246,0.457130232,0.462905163,0.989276686,1.099616858,0.689652002,0.87335648,1.391326293,0.819318958,1.055315005,0.985148515,1.407467548,0.986652615,1.25,1.810767349,1.057091276,1.771250592,1.414715472,0.956666667,0.974867725,0
20,14,3,0.173107157,0.174443695,0.174139365,0.173849418,0.173837183,0.171909385,0.174815787,0.172705191,0.17481474,0.176849733,0.176234391,0.175876605,0.841176792,0.754586595,0.541874897,1.404673265,0.653128561,1.393351916,0.913344312,0.917431193,1.763394679,1.009251297,0.706153846,0.667019443,0.603288078,0.366030397,0.64636659,0.951351351,0.970924434,2
21,15,4,0.364103526,0.367282858,0.366757236,0.365414905,0.365451574,0.361345334,0.36297475,0.359407306,0.362984193,0.371796764,0.370815268,0.368497168,0.912549603,0.544547804,0.642745192,0.974728033,1.081377268,0.904443916,1.00115228,0.941960038,0.806334063,1.201391125,0.895833333,1.329509663,0.919396237,1.012465462,1.203021235,0.956043956,0.937668341,5
22,0,5,0.447827142,0.44684165,0.44633062,0.443732421,0.443687293,0.443676061,0.437380357,0.438795904,0.437353736,0.449481552,0.448450099,0.452584152,0.947256596,1.007558579,0.611805805,1.269054807,1.190486569,1.147789176,1.012848543,1.006645186,1.353650128,0.858424351,1.5,0.897097863,0.923858075,1.145746475,1.09592709,0.943060498,0.961325967,1
23,6,6,0.318677453,0.320285797,0.319834345,0.318043981,0.318019598,0.315547408,0.314512457,0.312725001,0.314440674,0.326098608,0.32522251,0.319198997,0.846300008,0.54473017,0.654939433,1.102418029,0.561366307,2.082149827,0.846058408,0.831279621,0.685916053,0.954375113,0.621428571,0.373424122,0.34347347,0.170006665,0.532605391,0.885057471,0.866764133,6
24,17,7,0.317397759,0.316503191,0.316053136,0.312591291,0.31255107,0.312561285,0.316117036,0.3144514,0.316083319,0.323313312,0.322399676,0.323701742,0.89153248,0.700501253,0.681846543,0.995773675,0.951056459,1.768496021,1.036516386,0.956410256,7.918208263,1.0336942,0.911764706,0.655188437,1.829184601,1.719716926,0.935753411,0.971098266,0.965846995,3
25,1,8,0.153390614,0.154381085,0.154108738,0.152598049,0.152576622,0.15106059,0.1530723,0.151581025,0.153064438,0.158662052,0.158096891,0.157712665,0.882698838,0.735165642,0.453349428,0.860166962,0.922282098,1.17204988,0.959164762,0.915238095,2.939157025,0.963196832,1.1,1.122666334,0.680456218,0.638034916,0.899426336,0.901098901,0.922680412,4
26,5,9,0.418365103,0.419971863,0.419467085,0.418245978,0.418197177,0.415569907,0.429916575,0.428374241,0.429903951,0.434172977,0.433131277,0.432414942,0.906244684,0.735529378,0.626939352,1.16212959,0.813511247,0.803211154,0.958760162,0.957073171,1.405373676,0.935267314,0.916666667,1.553212501,0.796944511,0.63724559,0.78297159,0.953714286,0.931578947,8
27,13,10,0.908042268,0.907703189,0.907606449,0.901231996,0.911974765,0.911955487,0.889419518,0.901544296,0.901626265,0.877255534,0.88871848,0.878077004,0.977973488,0.75206044,1.029564305,0.725955159,0.813979549,0.946694083,0.975751296,0.950212766,1.060654117,0.962416298,0.767267267,1.34783807,0.899373534,0.75963344,0.800223816,0.991288864,0.988179669,6
28,7,11,0.635608603,0.634607514,0.63406688,0.629608295,0.629593054,0.62964944,0.638637371,0.638649238,0.638605646,0.628215699,0.627201114,0.630179878,0.936161036,0.731829574,0.951108195,1.149115876,1.003486948,1.166794869,0.999222975,0.985989492,1.271079728,1.063358183,0.727513228,0.728140381,0.989606793,0.991599927,1.043088826,0.990900912,0.970488202,7
29,4,12,0.335328427,0.337253545,0.336812842,0.335465761,0.333860348,0.33096186,0.332925767,0.328734046,0.331327649,0.342060506,0.339446981,0.340755965,0.846063041,0.509803922,0.540239104,0.686315834,0.620218265,1.787389649,0.907669285,0.86557377,1.431814503,1.046498401,0.616666667,0.396314618,0.639987633,0.348437583,0.621003799,0.903883495,0.871111111,2
30,9,13,0.163920146,0.165430157,0.165137322,0.163498626,0.163489713,0.161389994,0.166226258,0.164118713,0.166216177,0.161556824,0.160964888,0.161639213,0.910567946,0.846842878,0.480386462,0.876962616,1.169657793,1.479498094,1.010475548,0.95,2.581303708,1.172380296,1.0,0.722771115,0.928164779,1.12208313,1.275145752,0.931578947,0.951219512,3
31,3,14,0.356747332,0.358588181,0.35808222,0.35726888,0.35726476,0.354412923,0.364897331,0.360385667,0.364895196,0.366024394,0.365042735,0.367391648,0.901319991,0.6325,0.688924406,0.878956242,0.935519763,1.532364992,0.974635782,0.911056258,1.829281928,1.062484376,0.692307692,0.429130778,0.770121607,0.755178136,0.981218434,0.936784702,0.925581395,4
32,8,15,0.197391169,0.196150088,0.195808235,0.195415451,0.195410336,0.195980188,0.200615595,0.201254285,0.200622689,0.199342873,0.198639459,0.201458036,0.825707676,0.55105895,0.312963505,1.122308956,0.574023293,1.447475107,0.904056099,0.890495868,3.363561101,0.957329476,0.640625,0.451649631,0.610770123,0.33072079,0.550958707,0.938118812,0.921232877,5
33,11,16,0.309200297,0.313189131,0.312713534,0.312335508,0.312335508,0.307373536,0.314572438,0.308752037,0.314564809,0.307946506,0.306998479,0.307325807,0.884256773,0.457498384,0.537053567,0.914895835,1.268134355,1.177482059,1.049383342,0.920249247,1.95698319,1.12764897,1.176470588,0.837526135,1.102639705,1.757044348,1.402600566,0.874384236,0.905405405,1
34,16,17,0.238344901,0.236732014,0.236330169,0.235249465,0.235262544,0.23608364,0.236223007,0.236382021,0.236216394,0.235297061,0.234495737,0.23984494,0.896271607,0.848305085,0.515241173,0.624461754,1.233648741,0.416456488,1.000146657,0.913333333,0.360712647,1.224376822,1.1875,4.760510456,0.775995174,1.001684647,1.383688334,0.847449195,0.902498972,8
35,12,18,0.323871407,0.327274837,0.326777929,0.32402211,0.324042953,0.319558495,0.329149156,0.325391993,0.329161742,0.336166212,0.335198702,0.33265333,0.887455733,0.679030374,0.732467997,1.036843806,0.873546284,0.939606154,0.954537845,0.926913192,1.287929821,1.040265745,0.846153846,1.197777243,0.677534817,0.604886515,0.902602223,0.940371457,0.931818182,0
36,10,1,0.301922173,0.305129364,0.304623917,0.303073086,0.302929151,0.298792183,0.30881034,0.30429159,0.30872901,0.321248679,0.320160651,0.318542793,0.764713359,0.544337697,0.398952003,1.212258982,0.283830049,1.698971917,0.817656906,0.940455711,65.29889725,0.961012153,0.333333333,1.310662599,0.444838426,0.115089146,0.268517651,1.086152987,0.995555556,7
37,2,2,0.460816546,0.467036094,0.466440722,0.463548466,0.463463282,0.45604545,0.468695037,0.461552696,0.468580772,0.481337958,0.480031404,0.476363003,1.001995062,1.043927854,0.590453662,1.059406327,1.24227464,1.012526723,0.987777394,1.025020845,0.494851731,0.836770938,1.25,1.169864041,0.81685524,1.056889575,1.159347221,1.005577191,1.020661157,0
38,14,3,0.172636659,0.174733998,0.174293072,0.173191712,0.173184231,0.17040731,0.174782286,0.171981866,0.174742086,0.179756462,0.178928151,0.178240814,0.903220255,0.758928571,0.545216968,0.951358432,1.400215661,0.865547385,1.048861395,0.974264706,2.843537255,0.956467907,1.166666667,2.24310187,1.153287542,1.619047803,1.37838319,0.96875,0.977272727,2
39,15,4,0.368371144,0.364893241,0.364161372,0.362687966,0.362479825,0.364876487,0.366658453,0.369000507,0.36669849,0.36983327,0.368285282,0.374279167,0.887237204,0.753278123,0.489588685,1.257959767,0.935418564,0.918513537,0.978766679,0.984386617,1.611121149,1.135135246,0.833333333,2.513586387,0.883685351,0.81352684,1.046796033,1.0,0.986641221,5
40,0,5,0.447668199,0.443124964,0.442519847,0.440716417,0.440558633,0.443950165,0.447531574,0.450797036,0.447444058,0.45589497,0.454511914,0.461573983,0.969136932,1.113138686,0.709050965,1.349724168,1.429134313,1.114735194,1.038305961,0.996168582,4.635225117,1.226642593,1.166666667,0.699111528,1.027121408,1.45093498,1.668153441,0.983739837,0.996062992,1
41,6,6,0.321070717,0.318509986,0.317810306,0.314947981,0.315204618,0.316735895,0.314209208,0.315807134,0.314248911,0.319814885,0.318635032,0.323472741,0.907072073,1.02556391,0.433681983,1.338720606,0.699390229,0.97935189,0.964544977,0.964420893,4.12705375,0.896567225,1.132575758,1.431513374,0.99464759,0.696648945,0.620382771,0.959839357,0.960233687,6
42,17,7,0.315728612,0.312915325,0.312309342,0.308732183,0.30861949,0.310357955,0.312312462,0.31403454,0.312293104,0.319448949,0.318223322,0.323272363,0.955223349,0.793995859,0.171342812,1.12235557,0.552022662,1.186934088,0.905378541,0.959014556,2.520549673,0.740579165,0.857142857,1.332567357,0.666082573,0.352166823,0.433122158,0.959042304,0.95505618,3
43,1,8,0.153954774,0.152923895,0.152521,0.150406585,0.150126226,0.150539943,0.153309362,0.153607357,0.153202305,0.155986741,0.155043859,0.157598272,0.896371746,0.657054001,0.36985512,0.867819334,0.839114934,1.187087396,0.992281808,1.057034221,14.90280492,1.008299263,1.0,0.343039948,1.091051732,0.928025868,0.805330967,1.055601008,1.0546875,4
44,5,9,0.418723023,0.421004998,0.420284563,0.419625521,0.419526965,0.41607885,0.426564943,0.422991279,0.426429776,0.430706966,0.429212532,0.429152019,1.076827289,1.276595745,0.697499209,1.280504901,2.294205455,0.922660067,1.105524916,1.014869888,0.54129729,0.986840651,2.0,1.911829145,1.194583823,2.786681717,2.558131463,0.967588933,0.994252874,8
45,13,10,0.916856122,0.903436989,0.903122803,0.900955076,0.901155592,0.914495919,0.89898455,0.912028272,0.899007473,0.901468648,0.901026473,0.914868597,1.054477893,1.06122449,1.590957176,0.948458642,1.578151225,0.728123589,1.033585167,0.970517928,0.360796913,1.109985181,1.166666667,1.999346546,0.887938673,1.386807729,1.686395671,0.953468564,0.971252446,6
46,7,11,0.628271943,0.625804612,0.625089284,0.625605651,0.625641552,0.627039496,0.624867679,0.624962169,0.624842092,0.627066654,0.625745557,0.629248472,0.985262503,0.904575893,1.126123821,0.997739861,2.119841952,0.893639383,1.111109334,0.98467433,2.037282709,0.906684424,1.0,1.421994624,1.730899269,4.47701406,1.793293662,0.984210526,0.980392157,7
47,4,12,0.334275381,0.331670985,0.331411324,0.327671328,0.327251005,0.32885203,0.329014216,0.330836849,0.328976164,0.336437438,0.335105422,0.340391749,0.889960076,0.681818182,0.2017005,0.664557317,0.662832611,1.521249801,0.952050193,0.956457565,3.63566627,0.98812738,0.8125,0.296884834,0.93143712,0.616495616,0.621093931,0.968253968,0.959923664,2
48,9,13,0.165021411,0.164380357,0.163952827,0.161742606,0.161737277,0.161738139,0.163616513,0.163615337,0.163610323,0.165764526,0.164954824,0.16702601,0.864046277,0.526349614,0.368588563,0.874884231,0.857378127,1.069003196,0.985529947,0.999203187,8.011342091,0.982180849,1.0,1.568586267,1.0353772,0.864119486,0.831431614,1.001724138,1.004132231,3
49,3,14,0.354788396,0.357257879,0.356565494,0.354540826,0.354517682,0.350941946,0.361520416,0.358275757,0.361469205,0.366264711,0.364889528,0.364945354,1.013490634,1.186320346,0.546121881,1.916468384,1.893056693,0.657984124,1.066286859,0.958736059,0.708820702,1.180923019,1.5,6.803772509,0.998395891,1.9102121,2.277121989,0.929133858,0.948473282,4
50,8,15,0.197505356,0.196140867,0.195685426,0.193743115,0.193698742,0.194330355,0.19368584,0.194265822,0.193654654,0.200024558,0.19911993,0.202114054,0.907620563,0.75436115,0.272866592,1.054783362,1.057771687,0.810738091,0.984170838,0.934074074,1.586217806,1.02384578,1.4375,2.560060485,0.800279016,0.847925755,1.088745256,0.9024,0.908396947,5
51,11,16,0.310080714,0.31381865,0.313232983,0.308354032,0.308273258,0.303532666,0.306994296,0.302057045,0.306966231,0.31819739,0.316959785,0.315378352,0.988726984,0.701030928,0.70856455,1.138305557,2.060607559,0.665526906,1.059683452,0.95530303,0.179130661,1.10943076,1.535714286,3.87658844,0.843450441,1.802606809,2.35719319,0.896607431,0.942382813,1
52,16,17,0.237911974,0.23608818,0.235520911,0.233191007,0.233166738,0.234143263,0.229959488,0.230854028,0.229933434,0.243084177,0.241951692,0.245768548,0.884857064,0.797385621,0.355346298,1.44481701,0.791123363,0.889142266,0.953051021,0.973977695,2.695178639,1.472520329,1.0,1.924217142,0.914401355,0.600796452,0.962824847,0.951612903,0.976744186,8
53,12,18,0.326651217,0.325603477,0.324948253,0.322256561,0.322302464,0.322334675,0.324553141,0.32462417,0.324605314,0.321993903,0.32067118,0.324034888,1.004119,1.388888889,0.584188046,1.177576191,0.915182743,0.928724845,0.964980291,0.984962406,0.506482854,0.765653599,1.666666667,1.625168075,0.695247914,0.680680323,0.787463994,0.944444444,0.969230769,0
54,10,1,0.306261105,0.303696127,0.303278124,0.302041339,0.30203446,0.303673898,0.306020586,0.307323777,0.306048909,0.309280099,0.308421537,0.312614096,0.907321039,0.793730558,0.487768741,0.953113889,0.719815641,1.318343077,0.942709362,0.963630766,1.08451366,0.763465913,0.96875,0.859862296,0.842197613,0.541202019,0.583658841,0.963562753,0.968871595,7
55,2,2,0.464434627,0.463306476,0.462805814,0.457551399,0.461778448,0.461787711,0.467461581,0.472458535,0.471663394,0.469343487,0.472515251,0.47403157,0.871058435,0.561868687,0.410370699,0.533743567,0.510396605,2.606023322,0.908025241,0.987287176,2.49737633,1.062626395,0.694444444,0.099972931,0.810533408,0.358550879,0.512614649,1.025987795,1.005855568,0
56,14,3,0.172284006,0.174292588,0.173994456,0.173641111,0.173636451,0.170963222,0.17414828,0.172328344,0.174141518,0.173522815,0.172942054,0.172399303,0.784594379,0.484585742,0.331598529,0.823418618,0.457147365,1.905420141,0.908086331,0.974074074,4.110442734,1.039058047,0.513157895,0.478780817,0.852305933,0.372257757,0.458785537,1.019918699,0.992307692,2
57,15,4,0.363192614,0.36603373,0.365565509,0.361046649,0.361040068,0.357039032,0.363991272,0.363043784,0.363949097,0.367855371,0.36688863,0.366465654,0.955427333,0.853794643,0.442841263,1.430818063,1.17033098,1.039458828,1.021215896,0.967883212,2.240963953,1.116448823,1.033333333,1.20704767,1.047442304,1.245690619,1.26704654,0.95308835,0.975403849,5
58,0,5,0.446629521,0.446099332,0.445597797,0.447487188,0.44391808,0.443233943,0.451099697,0.447960754,0.447781257,0.453894018,0.449568449,0.457059253,0.954104406,0.883351102,0.515017788,0.723512208,1.21028541,1.275333826,1.025571681,0.975794818,1.273662404,1.450188765,0.904166667,0.393341052,0.984118024,1.294533649,1.562075291,0.983935743,0.983544,1
59,6,6,0.319783281,0.317322721,0.316904524,0.315234749,0.314069938,0.315635257,0.320947538,0.32244515,0.320901038,0.326499286,0.325520233,0.32984026,0.968336765,0.974229858,0.540634836,1.336114609,1.215627959,2.365944914,1.005810912,0.969525802,0.584530757,1.000061066,1.285714286,0.298265167,0.807806344,1.059935797,1.234838216,0.947058824,0.952586207,6
60,17,7,0.314842854,0.317477955,0.317056501,0.313676735,0.313676132,0.310096253,0.312121184,0.308808379,0.312124824,0.321572175,0.320716337,0.320206446,0.958867463,1.157894737,0.389137633,0.929349865,1.095888871,1.738010838,1.007585113,1.005347765,5.847413445,0.862019118,1.03125,0.569058397,0.948590623,1.079425674,1.012771075,0.988869048,0.986170213,3
61,1,8,0.152980057,0.154639841,0.15437035,0.153679945,0.153684923,0.151485129,0.155645698,0.153592098,0.155662033,0.153002379,0.152469608,0.151980809,0.771429443,0.46823806,0.422102236,0.720369876,0.429108686,4.565541645,0.912690148,0.945606695,14.29490764,1.006845266,0.477272727,0.111588488,0.918737349,0.403175453,0.427176654,1.008124384,0.957964602,4
62,5,9,0.418479141,0.417468361,0.416970667,0.413337704,0.413337704,0.413320769,0.412963499,0.412931091,0.412963683,0.431491915,0.430519984,0.43345896,0.97664237,1.018081761,0.726259851,1.664582982,1.127911088,1.538414347,0.989546773,0.947018588,2.136920776,1.153462268,1.178571429,0.654295575,0.851980623,0.901785459,1.220945444,0.934387751,0.935344828,8
63,13,10,0.915227309,0.914918759,0.914760115,0.91792416,0.917951807,0.917898985,0.913192199,0.913223228,0.913214644,0.912069528,0.911725138,0.912665907,1.019127359,1.032552083,1.138964045,1.401831869,1.136070183,0.590725827,1.00431844,0.962110486,0.651930019,1.104533391,1.10989011,6.463062919,0.898543497,1.044932984,1.247879979,0.954944179,0.963740458,6
64,7,11,0.630760946,0.634862085,0.634423607,0.632939057,0.629631154,0.624459721,0.630705433,0.622399622,0.627444674,0.645842667,0.641583462,0.642785635,0.891072925,0.50430622,0.756415519,1.483361071,0.995081166,1.313089283,0.98340384,0.958646617,0.59960896,0.965185156,0.78125,0.497079333,0.836758744,0.840897137,0.968672704,0.968421053,0.970817121,7
65,4,12,0.33471034,0.333730451,0.333275531,0.328780275,0.334329791,0.33434793,0.33245077,0.338191192,0.338172789,0.33179186,0.336434947,0.333695732,0.826368185,0.741863905,0.308829306,0.424378388,0.449960045,1.997625923,0.904056827,0.94233474,1.669500064,1.068286286,0.6,0.099697602,0.836193099,0.346060768,0.441802673,0.962279246,0.952554745,2
66,9,13,0.164096318,0.163485998,0.163196533,0.161953947,0.161955675,0.161961874,0.164025261,0.164027109,0.164019679,0.162577415,0.162003354,0.163781806,0.853641179,0.588474026,0.223257114,1.035341146,0.710406477,1.973612435,0.961132608,0.975,2.654218705,0.855647879,0.872368421,0.152004805,1.013833632,0.651709301,0.588304359,0.98203125,0.98602136,3
67,3,14,0.354085782,0.357349963,0.356856649,0.354714056,0.354714798,0.35042188,0.35412161,0.350120685,0.354105718,0.354931468,0.353955089,0.353195161,0.953291942,1.05,0.549484179,1.065098984,1.358639794,0.920524505,1.043593736,0.958156028,1.69118943,1.098328447,1.170278638,1.421454709,1.042906751,1.581473322,1.492962905,0.939734748,0.950276243,4
68,8,15,0.197551736,0.196860011,0.196539259,0.194253687,0.194248549,0.194249971,0.199652407,0.199661328,0.199647424,0.195997527,0.195335331,0.197378065,0.88794762,0.716723549,0.494690016,0.632150018,1.178789045,1.661425333,1.00405872,0.95088968,2.540520818,0.881299534,0.975,0.443372515,0.891142444,1.044345587,1.092918279,0.95859375,0.949814126,5
69,11,16,0.311622401,0.310688388,0.31021487,0.309130282,0.309133395,0.309147312,0.312843268,0.312841131,0.312833073,0.312137069,0.311236478,0.313973499,0.842359373,0.726439791,0.427568323,0.814096035,0.737861873,2.066908596,0.970975344,0.98348955,5.347351104,1.071444139,0.777777778,0.4061766,1.010764988,0.73131197,0.772983277,0.986055777,0.980988593,1
70,16,17,0.235667862,0.237768863,0.237388293,0.233042413,0.237040553,0.234137417,0.236029346,0.236662692,0.23953725,0.236322672,0.239285312,0.235039127,0.902267673,0.77797379,0.637290512,1.037794222,1.436088475,0.70504911,1.029876754,0.949090909,0.667073403,1.054424882,1.091911765,3.015482626,1.027908053,1.380596896,1.45557726,0.935573123,0.950943396,8
71,12,18,0.326073625,0.323179589,0.322709415,0.322586803,0.322593645,0.324539131,0.327453795,0.329250301,0.327446419,0.321373602,0.320463591,0.325026376,0.85411083,0.559339888,0.617597977,0.386345128,0.63741305,1.544094092,0.954990194,0.960288809,5.648138278,1.025874261,0.823529412,0.258536201,0.968463786,0.619921884,0.651675999,0.980314961,0.975609756,0
72,10,1,0.306036087,0.30400542,0.303447192,0.300956622,0.300978335,0.302074271,0.302049199,0.303169287,0.302067717,0.294957313,0.29389139,0.297912462,0.954926402,1.112406015,0.619805033,0.80054953,1.216416629,2.903732657,1.018201866,1.054228856,0.716668506,1.05300859,1.455882353,0.289269375,0.906689523,1.197874031,1.258341669,1.016574586,1.04325212,7
73,2,2,0.461121559,0.466723524,0.466159331,0.463908347,0.460826659,0.454121422,0.46787627,0.456833633,0.464793473,0.471919076,0.467711818,0.470264975,0.971299829,0.884615385,0.550434375,0.94479094,1.074889572,1.157506068,1.023795965,1.043891403,1.553217033,1.046935129,1.25,0.98405562,1.169797596,1.255909379,1.101966922,1.0352657,1.042056075,0
74,14,3,0.173117142,0.174831874,0.174093944,0.172817636,0.172990486,0.170610419,0.175239881,0.172872119,0.175059861,0.177364801,0.176403588,0.176459732,0.861774175,0.629113924,0.321489027,0.869792582,0.690385107,2.272231905,0.926367691,0.964255319,1.693918044,0.971222542,0.6875,0.421704622,0.673038224,0.478532017,0.682254706,0.990697674,0.976622024,2
75,15,4,0.363476077,0.365768016,0.365169599,0.360509645,0.360518167,0.357080004,0.36646054,0.363016015,0.366500916,0.368914953,0.36776708,0.367577352,0.982039773,0.81749232,0.752423247,1.316073297,1.268765865,1.017036791,1.043815465,1.037446809,1.652834625,1.025595051,1.166666667,1.287611577,1.121228768,1.527176596,1.306816847,1.028838339,1.026431718,5
76,0,5,0.448820602,0.444660278,0.444057102,0.442084102,0.442093541,0.445067267,0.44908583,0.45212985,0.449052102,0.44714433,0.445871589,0.452505943,0.965676921,0.72972973,0.861617767,1.707505441,1.157409807,1.141520216,1.020209607,1.026523041,1.061179759,0.952053379,1.243589744,0.797132651,1.069541947,1.220708746,1.119393201,1.015098492,1.022413118,1
77,6,6,0.319117949,0.320912422,0.319370326,0.315782406,0.316777373,0.313916429,0.32214851,0.319165714,0.322283142,0.324966414,0.323844867,0.323741138,0.917496414,1.004530744,0.396432825,0.731142207,1.009643656,1.456367863,1.003199488,1.024390244,0.932362116,1.070942622,1.05,0.533100019,1.139912219,1.034014796,1.032502138,1.025225225,1.020212766,6
78,17,7,0.317382562,0.315699036,0.315303467,0.313628919,0.31342702,0.314102696,0.315065701,0.315822783,0.315047337,0.316759996,0.315652378,0.319541479,0.881061653,0.737331729,0.373915168,0.96048595,0.990206795,1.190224209,0.990725264,0.96916996,1.214928654,1.044399738,1.0,0.904821996,0.900384573,0.910885914,1.02233248,0.967672414,0.969008264,3
79,1,8,0.152530168,0.154054402,0.153691625,0.152916536,0.152961555,0.150815839,0.156052532,0.153975131,0.15604664,0.153174253,0.152490942,0.152355904,0.860032165,0.613137454,0.350851301,0.421796468,1.174154039,2.521949632,1.053509882,1.012033712,12.94155172,0.823306472,0.777777778,0.13128368,1.75289089,2.392841739,0.94499625,1.04185022,1.023012552,4
80,5,9,0.418717212,0.4175315,0.416937934,0.411843144,0.411860763,0.411900777,0.410746827,0.41073675,0.410711411,0.420224486,0.418968049,0.42251912,0.906358886,0.556070775,0.776608614,1.032916607,0.894754643,0.95341517,0.98954101,0.994557367,1.774285772,1.262137407,0.90625,1.264727537,1.013051627,0.898012575,1.042241325,0.997886729,0.992857143,8
81,13,10,0.921501911,0.909677798,0.909457163,0.90935147,0.909456265,0.921140841,0.920975037,0.932755561,0.920982551,0.893941198,0.893502667,0.906152726,1.055968356,1.691729323,1.348816057,1.385183633,1.369216433,1.517471252,1.037104921,0.969432314,0.810533927,0.907341824,1.272727273,0.480409529,1.011030034,1.418914814,1.314828882,0.951276916,0.961883408,6
82,7,11,0.627097535,0.635708436,0.635133195,0.634926556,0.634902221,0.625132062,0.63166328,0.622410063,0.631540046,0.619352204,0.618211329,0.613032368,0.966984291,1.371428571,0.717899255,0.646722811,1.057140289,1.599647782,1.010576633,0.985539001,1.642658155,0.892541575,1.428571429,0.445748531,0.944194976,1.109997009,1.00374036,0.947142857,0.972670195,7
83,4,12,0.333524738,0.33595775,0.335368951,0.333207073,0.333286433,0.329784457,0.335092555,0.332052989,0.335105569,0.340253372,0.339163949,0.339278583,0.979092328,0.955703883,0.812354444,1.009213573,1.17875716,1.504015272,1.014989186,0.987931034,3.128391367,0.955954655,1.25,0.735505062,0.986415518,1.156150885,1.15373949,0.971428571,0.978699552,2
84,9,13,0.16450587,0.163479868,0.163162536,0.162074029,0.162037653,0.162423422,0.165343996,0.165696976,0.165319379,0.15971224,0.159048565,0.161315804,0.792693636,0.514150473,0.361672985,1.391271936,0.388950099,4.01568262,0.922770665,1.029333333,35.62592133,0.764643944,0.6,0.407927524,1.202302699,0.452407843,0.312830935,1.085,1.052816901,3
85,3,14,0.356283044,0.357587926,0.356711367,0.356935584,0.357242308,0.354866405,0.36017172,0.357641516,0.360183377,0.353838177,0.352669677,0.353445745,1.017035029,1.126373626,0.54969236,1.278585193,1.40165951,0.883233926,1.066591881,0.990789474,1.130501581,1.097240411,1.375,1.712673061,1.247203047,1.881265628,1.507012312,0.962441315,0.962669683,4
86,8,15,0.196973551,0.19681371,0.196315629,0.195647034,0.195723286,0.195140791,0.201973238,0.201235949,0.20197057,0.198020421,0.197210937,0.198674639,0.941474167,0.890016103,0.483094341,1.148827498,1.152946585,1.108153018,1.020747491,0.969198312,2.714482889,1.03803668,1.285714286,1.202271385,1.098294754,1.228036647,1.174179472,0.947031963,0.956140351,5
87,11,16,0.308390226,0.311663538,0.311094588,0.307548215,0.307497079,0.303213722,0.309637223,0.305315813,0.309616337,0.314817961,0.313762013,0.312446619,0.808031736,0.630060606,0.582520365,0.850696146,0.580944215,3.654295401,0.930914635,0.990443093,13.31056372,1.114856923,0.5625,0.150545802,0.940322297,0.510355851,0.606828493,1.020862523,0.995475113,1
88,16,17,0.237608928,0.236405828,0.235986857,0.23504644,0.235009674,0.235367717,0.239372713,0.239836371,0.239371631,0.234021875,0.233109005,0.236140964,0.922832823,0.80567689,0.652418259,0.918873563,1.333159562,1.164433762,0.984698172,0.924901186,0.840806112,0.856007956,0.833333333,0.993039587,0.630321378,0.850138595,1.2149218,0.924242424,0.935950413,8
89,12,18,0.327993412,0.325208979,0.324711132,0.322827732,0.322803491,0.324576983,0.329975177,0.331690112,0.329949035,0.326121552,0.325074926,0.329829065,0.901623065,0.707759246,0.556194735,0.608411022,0.927959924,2.116722626,1.015106724,1.048192771,3.4892296,1.30834237,0.9375,0.273275348,1.247614496,1.165533175,1.102575972,1.05,1.041841004,0
90,10,1,0.303438973,0.305993007,0.305465763,0.303884688,0.303830964,0.300454185,0.298042323,0.294438529,0.298076054,0.310657651,0.30928724,0.308456557,0.845168529,0.524671053,0.62741605,1.211956102,0.547440135,1.822303597,0.952704678,1.003809524,18.18573682,1.152508592,0.529411765,0.461467969,1.086172027,0.603683172,0.598573803,1.122619048,1.052083333,7
91,2,2,0.463460345,0.465216677,0.465136781,0.461142544,0.460032528,0.457244567,0.462384862,0.459192013,0.462250173,0.474028657,0.472778403,0.472942733,0.954818616,0.583071279,0.535102575,0.534924086,1.090461275,1.315075088,1.008723662,0.987443946,1.811866045,0.753593539,1.090909091,0.719258432,1.0515647,1.100698858,0.924778668,0.951794872,0.995192308,0
92,14,3,0.172865566,0.17439575,0.173905702,0.173633334,0.17377793,0.171656879,0.176780568,0.174610487,0.176849889,0.175047773,0.174145626,0.173910648,0.906095793,0.748610175,0.433171398,1.246330802,1.084835489,1.781630988,1.022554621,0.978378378,3.152423044,1.082952698,1.222222222,0.518627426,1.202865227,1.270700078,1.134679263,0.977194353,0.976303318,2
93,15,4,0.364513602,0.366731884,0.366209267,0.363037858,0.362799853,0.359563414,0.368335333,0.365526298,0.368551446,0.370319238,0.368968082,0.369085508,0.925609756,0.822478992,0.812334437,0.88099512,1.392564658,2.412501355,1.086229954,1.04266055,4.400880819,0.899452145,0.880514706,0.460025616,1.309847269,2.408548034,1.347391863,1.021428571,1.015645273,5
94,0,5,0.447850368,0.446834293,0.446280513,0.440411507,0.446159639,0.44617724,0.439347691,0.445964683,0.445911643,0.443671726,0.448308982,0.445687808,0.963714767,1.100087108,0.617275774,0.890122925,1.326312603,2.081792578,1.045283699,1.002702703,3.177672913,1.051120827,1.166666667,0.34782561,1.071266056,1.604289993,1.376173405,1.008121827,0.990566038,1
95,6,6,0.316600599,0.319458597,0.318857891,0.31672141,0.315245185,0.311458097,0.319257681,0.314385944,0.317838516,0.318357706,0.315544712,0.316782728,0.899484149,0.922270742,0.459196149,0.609489944,0.882765519,2.763604222,1.02115922,1.085894236,6.012391247,0.944738242,0.925,0.206617542,1.470466629,1.254671989,0.861784996,1.105527638,1.095794393,6
96,17,7,0.316000154,0.3156271,0.314888968,0.313216479,0.313352493,0.312781523,0.316925316,0.316444975,0.317235966,0.314179053,0.312964088,0.315186299,0.963771929,1.32300885,0.444023684,0.992407158,1.181869494,1.209020077,1.038850289,0.985775862,2.039390607,1.071036324,1.25,0.916729825,1.374349116,1.524605563,1.221657955,0.960098522,0.972477064,3
97,1,8,0.15350618,0.152950812,0.152621485,0.151620241,0.151603644,0.151598219,0.157389739,0.157353084,0.157344279,0.152073235,0.151250612,0.153172041,0.873886651,0.674952032,0.500042137,1.116336309,0.963546723,3.003779917,1.067963884,1.16080402,39.51155296,0.982175443,1.0,0.340954226,1.900433455,2.045693417,0.977151972,1.194610778,1.165775401,4
98,5,9,0.415428871,0.419530204,0.417833758,0.414924288,0.415933529,0.41103236,0.418819583,0.413480093,0.418956195,0.417002743,0.415296784,0.413064615,0.902007513,0.69522036,0.373473193,0.923423697,0.634561661,1.992862164,0.967064129,1.046543779,5.122725225,1.013612303,0.916666667,0.176239403,1.248298215,0.705442584,0.607382987,1.081958763,1.052631579,8
99,13,10,0.904322446,0.90658106,0.905199134,0.89812259,0.905633516,0.903471286,0.887631543,0.893248077,0.893861476,0.922044796,0.927289688,0.922104159,1.058411034,1.683529412,1.419733646,1.665265854,1.79559079,1.69329671,1.088563149,0.986130806,1.921995826,1.290990904,1.6875,0.478749437,1.099864541,2.46700888,2.141542891,0.925485411,0.96,6
100,7,11,0.631997018,0.628403844,0.628570275,0.629638013,0.628792858,0.631325281,0.635917908,0.638303344,0.635849862,0.629392672,0.628394741,0.633504021,0.967529534,0.937263794,0.983395113,1.178257133,1.335612422,2.057425064,1.041451218,1.052309929,1.521462053,1.016852122,1.116883117,0.37922291,1.103650952,1.569376154,1.347998283,0.955,0.957088745,7
101,4,12,0.333964302,0.337575548,0.337062571,0.335587358,0.335514426,0.330985609,0.340696357,0.336384294,0.340700235,0.34052187,0.339502722,0.337925033,0.845427053,0.445747801,0.705988997,1.109221344,0.546430924,3.71347882,0.915980466,0.932539683,8.036953436,0.944519902,0.65530303,0.146762831,1.003158508,0.400150544,0.503767755,0.984272197,0.949656663,2
102,9,13,0.164085569,0.164689815,0.164365616,0.164144647,0.164177912,0.163033811,0.168208404,0.167262112,0.168207951,0.163482103,0.162858352,0.163549624,0.825983815,0.680634921,0.661693164,1.458368797,0.625385127,6.591338371,0.933531169,1.029009116,5.318918281,0.825759369,0.625,0.092582382,0.923094984,0.482981125,0.561730407,1.0975,1.043785311,3
103,3,14,0.357166794,0.358434983,0.357736133,0.354967529,0.355173847,0.353108428,0.356092658,0.353213155,0.356151878,0.360727365,0.359582738,0.359345957,0.895104428,0.958962264,0.595772185,1.116524943,1.059539998,2.388810238,1.03036405,1.006666667,3.79608847,1.073659452,1.176470588,0.369079939,1.39135937,1.414205669,1.114010196,0.971143174,0.997572816,4
104,8,15,0.195219554,0.197668209,0.197043793,0.19624636,0.196204508,0.193187325,0.201984614,0.199329149,0.20192582,0.199822001,0.198935127,0.198308349,0.919124462,0.645476773,0.433308144,1.483490796,1.702901269,2.332861875,1.14120124,1.155777103,2.929760867,0.99937031,1.941176471,0.359819063,3.274727973,4.753834798,1.69099366,0.949589683,1.005154639,5
105,11,16,0.311238063,0.31050981,0.310105827,0.310114197,0.309985879,0.309824212,0.311346005,0.311117204,0.311230377,0.313941426,0.312818493,0.315337504,0.903255418,0.941269841,0.64138844,0.821686127,0.946984347,1.838699559,1.004720746,0.941308244,4.776879292,0.975192059,0.905982906,0.537430457,1.394159048,1.112852888,0.922367206,0.940996063,0.897960478,1
106,16,17,0.238267415,0.237559591,0.237202358,0.234395237,0.234328061,0.234338001,0.233616056,0.233612299,0.233642543,0.240528799,0.239740055,0.241806739,0.921871055,0.8765625,0.480793422,0.951318016,1.462064093,0.584037246,1.050884443,0.919090909,0.619260278,1.045526898,1.111111111,2.028670397,1.09021395,1.743266621,1.492205336,0.836363636,0.854014599,8
107,12,18,0.325239452,0.327931433,0.32752879,0.326536637,0.325731284,0.322102656,0.325304021,0.3222618,0.325522188,0.321346662,0.319945338,0.319845913,0.797891249,0.710758022,0.482554999,1.176208794,0.564073461,1.745027516,0.935295405,1.0377392,5.142043166,1.042541151,0.770833333,0.503001346,0.926787715,0.492659828,0.580074874,1.096111291,1.048578199,0
108,10,1,0.302458406,0.301407315,0.300855256,0.296929443,0.296902686,0.297019274,0.299173999,0.299173722,0.299161719,0.307266513,0.306174889,0.309077549,0.876563619,0.715151515,0.352248403,0.549945979,0.770446204,1.306498877,0.97952393,0.989250467,3.097027227,1.137511671,0.801282051,0.654914774,1.022201565,0.799746492,0.851679932,1.003740654,0.996078431,7
109,2,2,0.46818216,0.463144669,0.462495695,0.46062425,0.460653081,0.464575986,0.466515336,0.470157076,0.466508982,0.478506094,0.477291339,0.484302207,0.949339337,0.70956016,0.810437357,0.6803343,1.919467132,1.277608862,1.055952009,0.974144487,0.323818894,1.153971325,1.15625,0.566243083,0.95945821,1.800658083,2.124524427,0.922131148,0.975393701,0
110,14,3,0.172124205,0.174402408,0.174021756,0.172742679,0.172754145,0.169858079,0.178241166,0.175807626,0.178243213,0.168710106,0.167984025,0.167521771,0.960910274,0.868564815,0.472277978,0.977573656,2.110915558,1.699727492,1.056341095,0.940996169,0.143178559,1.027283124,2.545454545,0.736426691,0.805131509,1.845335585,2.141969576,0.757081545,0.829959514,2
111,15,4,0.361990308,0.367507606,0.366890618,0.365714966,0.365763708,0.359250095,0.376896877,0.370350109,0.376929513,0.343993426,0.342765716,0.340137024,0.985952753,0.9625,0.537477412,0.88581525,2.683102277,2.01119771,1.097060382,0.985454545,0.272710994,1.001941902,3.196428571,0.352199574,0.995424309,2.826359576,2.662001479,0.762096774,0.89629006,5
112,0,5,0.445488207,0.444369054,0.443765172,0.443803236,0.443712749,0.443772532,0.45404386,0.454032286,0.454006445,0.440742146,0.439467878,0.442888966,0.964769278,1.040189125,0.535522097,1.515139088,1.426013265,1.611780103,1.050172121,0.995294118,0.596865671,1.093759643,1.540178571,0.471271722,1.260246601,1.681830708,1.489743893,0.961364948,0.983644195,1
113,6,6,0.320357462,0.319424253,0.318831906,0.315778035,0.315818887,0.315813439,0.315173157,0.315187291,0.315199137,0.312528108,0.311418328,0.314385142,0.85470679,0.588257292,0.730741238,1.090268272,0.992143334,0.599858422,0.971105782,0.917434281,0.568828924,1.138782238,0.75952381,2.436533914,0.682413222,0.71831969,1.067963523,0.908708979,0.941176471,6
114,17,7,0.312989109,0.31544444,0.314859716,0.312254013,0.312287876,0.30884302,0.314893093,0.311148915,0.314884734,0.318750946,0.31764859,0.316495118,0.812723817,0.82979798,0.444820282,1.02961621,0.448005927,2.96571412,0.903749437,0.963709262,4.511062655,0.892489581,0.569230769,0.224507127,0.903458557,0.338702145,0.390823789,1.030811218,1.014344262,3
115,1,8,0.154290913,0.153352159,0.153026572,0.150455156,0.150453659,0.150823253,0.155002276,0.155326315,0.15496583,0.15942986,0.158732553,0.160913793,0.847288059,0.624578313,0.424294066,0.833429404,1.036080965,2.555813687,0.996844712,1.010564018,1.677073998,1.437618277,0.875,0.510131635,1.056708093,0.966622508,1.252247103,1.009715021,0.979338843,4
116,5,9,0.421899571,0.417932393,0.417327192,0.412835937,0.412784855,0.415668417,0.424719001,0.431243842,0.424729971,0.435355771,0.434022621,0.443027244,0.958862556,0.986774194,0.540011287,1.618164274,1.071350854,1.63937683,1.030910554,0.9448,3.361403458,0.879726303,1.181818182,0.52500104,1.374008051,1.391017039,0.992644934,0.90022619,0.949152542,8
117,13,10,0.909587249,0.910851008,0.910593009,0.90136652,0.91856726,0.917095155,0.885594754,0.901913595,0.901774514,0.919163285,0.933238707,0.919978681,1.070686608,1.2,1.85129747,1.116911452,2.16194899,0.637978894,1.067738894,0.950502641,0.646104784,1.040312631,1.3,2.921497729,1.093651552,2.049523038,2.089700669,0.875195008,0.945594323,6
118,7,11,0.632572396,0.630935031,0.630859223,0.621978378,0.631685501,0.631693217,0.629729815,0.640556473,0.640636248,0.633373489,0.642380701,0.635307563,0.947180243,0.902173913,1.070569335,1.069301847,1.655563318,0.514589907,1.051743096,1.003998682,0.137620779,1.090110283,1.284210526,3.771321584,1.068821021,1.764926961,1.751838686,0.9724,0.988648894,7
119,4,12,0.335252594,0.33484114,0.333799043,0.333616151,0.333391347,0.332610743,0.33800114,0.337387316,0.338105954,0.339795703,0.338516626,0.340924277,0.779776898,0.598001701,0.67189708,0.374084778,1.021351511,2.058528307,0.985090647,0.959118545,3.13506174,0.793879942,0.53,0.116975,0.9940008,0.845554264,0.839576335,1.000387893,0.98185118,2
120,9,13,0.164796772,0.164010493,0.163339509,0.160434078,0.160781576,0.160957611,0.162500219,0.162383948,0.162389156,0.166929141,0.166009873,0.168092212,0.844499652,0.725038402,0.253696208,0.780367553,0.649403012,1.917418881,0.94607012,0.994401034,5.053068865,0.894915775,0.735,0.589405478,0.815777693,0.549119173,0.603904726,1.03220339,1.008867974,3
121,3,14,0.358070288,0.356647066,0.356094351,0.351078109,0.350164147,0.350186097,0.339457562,0.338401645,0.338333761,0.355798061,0.353609357,0.357886758,0.956708622,0.818448637,0.807245326,0.920292959,2.220922438,0.639290208,1.048378007,0.93006993,0.107536029,0.849169705,1.568181818,2.41339595,0.818389199,1.712582987,1.976490576,0.766224081,0.917434281,4
122,8,15,0.195817127,0.197548533,0.197181399,0.195438327,0.195429739,0.192809228,0.203020828,0.200334156,0.203025493,0.206220788,0.205452183,0.204582764,0.928346559,0.982550336,0.49895323,0.800312097,1.573775281,1.236528097,1.048176653,0.984494481,1.315727411,1.330472549,1.409090909,1.200675833,0.837334265,1.697848295,1.91340982,0.949316785,0.971432096,5
123,11,16,0.312755002,0.311632635,0.311060975,0.30779514,0.307829416,0.308018715,0.312144247,0.312157762,0.312170157,0.309314566,0.308249914,0.311168745,0.85549415,0.6975,0.530205226,0.732888066,0.885551083,2.812643548,0.997858926,0.975105467,8.184416216,1.110901335,0.653846154,0.234498003,1.152216198,0.976962339,0.928199734,1.0004329,0.981895323,1
124,16,17,0.238010602,0.236273768,0.235780623,0.234820635,0.234952348,0.235945659,0.239861032,0.23983751,0.239781213,0.23177447,0.230855487,0.235782276,0.961661502,1.192771084,0.581128138,0.961698337,1.960431789,0.989574026,1.090611721,0.951086957,0.445365233,1.118852038,2.0,1.612157349,1.28944767,2.688935088,2.109202442,0.790960967,0.930343511,8
125,12,18,0.327322415,0.32475235,0.324183804,0.323141055,0.323113058,0.324381799,0.32865203,0.330221915,0.328642249,0.318389121,0.317266699,0.321905705,0.914158956,0.708938121,0.607990059,0.729824984,1.109952364,1.220035067,1.01099861,0.947368421,3.460880008,0.912562617,0.892045455,0.809951448,0.998511453,1.12463802,1.0531474,0.935833333,0.949604743,0
126,10,1,0.302415007,0.305974338,0.305405272,0.304132215,0.304170865,0.299904212,0.313983412,0.309841369,0.314002279,0.301759149,0.300647924,0.298976038,0.907877393,1.071354167,0.741755937,0.822522468,1.365887525,1.612032368,1.107446168,1.003433476,2.15390298,0.944533064,1.236111111,0.547400661,2.501507558,3.422663412,1.354956002,0.959745763,0.964622642,7
127,2,2,0.465459571,0.465694107,0.464562808,0.463466525,0.463947026,0.463065575,0.474381483,0.470790009,0.474384411,0.458832878,0.457559736,0.456987962,0.912188327,0.597816197,0.763989429,0.815603925,1.083554934,1.280513352,1.026087706,1.001304348,1.259787528,1.093916537,1.214285714,0.705822668,1.300253518,1.326648555,1.133018324,0.980512821,1.009433962,0
128,14,3,0.17229863,0.17412441,0.173754324,0.173389436,0.173396046,0.170684681,0.175311977,0.173246549,0.175298496,0.174183646,0.173442537,0.1730366,0.876763337,0.556875,0.4002679,2.243587911,1.066045483,0.723194484,0.963632609,1.045606695,0.686774509,0.916053176,1.178571429,2.567035654,0.581673161,0.66325384,1.01502015,1.042243709,1.061229947,2
129,15,4,0.364046844,0.368106704,0.367512582,0.36421949,0.364249718,0.359175101,0.368589941,0.363684959,0.368572321,0.372141795,0.370975552,0.368513346,0.882715638,0.807692308,0.581666655,1.873843817,1.011524465,0.805927353,0.950791169,1.000865801,0.627429801,1.197066745,0.895833333,1.843105761,0.612522032,0.578495224,1.091578929,1.018719212,1.015046296,5
130,0,5,0.442778052,0.449159258,0.448472346,0.449332559,0.449405107,0.441897128,0.45877316,0.452897753,0.45876146,0.454917967,0.45366189,0.450260142,0.964464277,1.010512129,0.619319707,1.128616762,1.460259359,1.149590192,1.063873637,1.041179654,1.459156004,0.966518639,1.381818182,0.923533661,1.176983399,1.942097035,1.443414559,0.970704051,1.050691244,1
131,6,6,0.321063837,0.318475339,0.317940525,0.315401629,0.315381515,0.317189618,0.326714071,0.328487076,0.326723874,0.316946992,0.315845935,0.320021987,0.873872103,0.59948605,0.609682041,1.019623137,0.899147353,2.622533293,0.921971485,0.996578272,2.791911485,0.883385985,0.882352941,0.37424644,0.488976333,0.398848289,0.822636608,1.033665394,1.018957346,6
132,17,7,0.315059423,0.314010056,0.313453706,0.311609358,0.311536924,0.311498786,0.314116009,0.314171553,0.314117922,0.3124999,0.311307542,0.314380573,0.825011003,0.563063063,0.551326977,0.654057353,0.698963053,6.309621124,0.997765839,1.109440573,11.43064672,1.287825193,0.492439516,0.049201923,1.530575611,0.976468691,0.804766265,1.209391309,1.146094335,3
133,1,8,0.154581459,0.153981017,0.153623332,0.151824288,0.151847193,0.151706929,0.157322325,0.157349536,0.157314603,0.154890211,0.15422354,0.156021649,0.867242693,0.618444444,0.440637488,1.848071413,0.836814268,1.718940869,0.957350054,0.965432099,23.81671182,1.01464283,0.733333333,0.783490823,0.717298268,0.620273112,0.844841736,1.014705882,0.960352423,4
134,5,9,0.420550341,0.416645275,0.415798725,0.412628663,0.412871905,0.415666681,0.417077259,0.419683166,0.417106021,0.420031568,0.418797849,0.424588017,0.96844386,1.098136646,0.731962125,1.246409541,1.542911945,0.232426302,1.073304061,1.023868313,0.173760204,1.225727392,1.909090909,5.340825654,1.086098746,2.180389653,1.741834688,0.9342723,0.960300429,8
135,13,10,0.901888692,0.902652785,0.902252757,0.895485448,0.90927257,0.908601102,0.895691083,0.90922128,0.908465495,0.845454034,0.859079112,0.846424398,0.978973683,1.208333333,0.902192873,0.688199226,1.316181219,0.578661495,1.051364673,1.023660404,1.00328712,1.03715024,1.083333333,2.093793312,1.154632585,1.81559214,1.362095913,0.927371956,1.026518834,6
136,7,11,0.627758499,0.632224991,0.631583259,0.627411377,0.627519683,0.621772676,0.633111277,0.627748347,0.633150479,0.624546116,0.623312985,0.621350025,0.902839442,0.720689655,1.254469194,0.646612512,1.630953552,3.99582502,1.147664083,0.976830087,24.53385437,1.070094594,0.89010989,0.020476946,2.405149686,5.11515638,1.908969728,0.972982615,0.971274593,7
137,4,12,0.329654155,0.335284362,0.334664121,0.331816004,0.331743283,0.325031039,0.336291359,0.329635276,0.336276007,0.332369553,0.331084396,0.327991768,0.867814105,0.752916667,0.412729334,0.676145631,0.937756552,2.085915401,1.002270842,1.014797874,2.85002355,0.954426831,1.134615385,0.2266099,1.100157799,1.02560923,0.907980861,1.020220588,1.028745645,2
138,9,13,0.164873256,0.164917956,0.164475277,0.162184606,0.164174011,0.163504419,0.171090517,0.172519803,0.173646995,0.165319519,0.167303371,0.165208163,0.888505995,0.887599469,0.397857531,0.999030573,1.502368428,2.597751762,1.064031768,1.060377358,1.206313614,1.080162047,1.0625,0.386529419,1.381032167,2.034717698,1.565628271,1.004680851,1.066733068,3
139,3,14,0.358812315,0.355257713,0.354535831,0.349570168,0.349604878,0.35206263,0.351290537,0.353542043,0.351298942,0.365675678,0.364387226,0.370207819,0.862689841,0.642857143,0.467219374,0.863631595,0.879204112,0.746642713,0.983111354,0.986833899,0.681351547,1.15902879,0.8575,2.993138905,0.931810111,0.829008323,0.963287011,0.991785467,1.000892857,4
140,8,15,0.196770323,0.196017384,0.195545891,0.192881964,0.192924285,0.192939919,0.197068096,0.19711459,0.197074264,0.196968307,0.19606241,0.198464806,0.867650955,0.741134752,0.348867999,1.943319504,1.067039507,1.182697736,0.964226816,1.00204918,0.435376806,1.092092415,1.245059289,1.227341753,0.709868504,0.661536493,1.083134588,0.982264151,0.988381676,5
141,11,16,0.307960528,0.311608807,0.311143894,0.307199191,0.307016241,0.302330278,0.312923154,0.308441357,0.312929586,0.317236991,0.31605784,0.314686632,0.949806372,1.259740946,0.258484021,1.038406624,1.209742564,1.618852653,1.047904213,1.085735832,3.210574318,1.020918703,1.538194444,0.870749308,1.188315598,1.646153642,1.249410229,1.044715447,1.062256809,1
142,16,17,0.235151561,0.23827237,0.237795071,0.237456342,0.236628464,0.233070661,0.24487529,0.23971831,0.243972249,0.234822476,0.232867751,0.232228385,0.856334163,0.910296813,0.584072781,0.740700496,1.089358808,2.84189602,0.981267843,1.035174529,2.114602496,0.458316681,0.8,0.257422722,0.677174678,0.817889654,0.725635182,1.070491803,1.041666667,8
143,12,18,0.325462924,0.328066944,0.327433628,0.325483181,0.325483431,0.321815956,0.33391161,0.330744222,0.333914516,0.334731781,0.333506948,0.333291482,0.969400468,1.442622951,0.461183481,1.176899068,1.68440975,0.877423898,1.070903451,1.026433358,0.59905623,1.048055734,1.78125,1.893547224,1.16529982,2.089069377,1.739388096,0.952555148,1.003846154,0
144,10,1,0.305168651,0.304098457,0.303610805,0.301159065,0.301184801,0.301191713,0.303064169,0.301975124,0.303109166,0.303254907,0.302338753,0.306397307,0.94780415,1.033755274,0.527330342,1.656385754,0.963242279,0.889068232,0.929098343,0.955909091,0.512646061,1.108536309,1.5,1.858739688,0.517285104,0.49704741,1.003924311,0.948922334,0.953051643,7
145,2,2,0.465722028,0.461486819,0.460980199,0.46179407,0.461753605,0.464687282,0.46462477,0.461005776,0.464601599,0.464535569,0.46348605,0.468873759,0.988960913,1.004276316,0.476615711,0.92978731,0.921244568,3.314053953,1.007286042,0.995555556,7.021354715,1.051057182,1.180555556,0.25903531,1.110488953,1.070309314,0.951149297,0.976635514,0.986363636,0
146,14,3,0.172918338,0.174133208,0.173899364,0.17201094,0.171940305,0.169880992,0.172255309,0.170496339,0.17224379,0.178311567,0.177701042,0.176797039,1.019089904,1.072489451,0.439551124,1.155353752,1.446696356,1.04124188,1.014715171,0.967391304,1.338756527,1.134211471,1.375,1.328452653,0.736432382,1.141700954,1.581397844,0.952272727,0.960098328,2
147,15,4,0.365221174,0.368256967,0.367185099,0.36258718,0.363180244,0.358874602,0.367432717,0.361911848,0.367458036,0.378514823,0.377520409,0.373573011,0.968864611,1.022251309,0.614483045,0.99545395,1.100174997,0.897410519,1.042493616,0.977876106,1.856707326,1.207800226,1.0,1.549166531,1.635819766,1.448976911,1.173077469,0.981481481,0.977375566,5
148,0,5,0.445073013,0.447214877,0.446698025,0.445255792,0.445247754,0.441798401,0.451643875,0.447989984,0.451499024,0.451324504,0.450223384,0.450317578,1.079367142,0.992228739,0.567324701,0.790702845,1.712065697,0.957117141,1.099327512,1.047807018,0.447451612,0.844548219,2.0,1.110330167,1.557085495,2.433700904,1.517418546,1.016589862,1.031390135,1
149,6,6,0.318766567,0.320563977,0.320126783,0.31652467,0.316424546,0.314011111,0.312242756,0.31043893,0.312220341,0.325392199,0.324505758,0.324558366,0.81098537,0.509879618,0.578647908,0.931303223,0.502708997,1.421595543,0.906066759,0.946351931,5.933112849,1.003801191,0.5,0.703385316,0.813402484,0.388872871,0.500299626,0.999522901,0.977272727,6
150,17,7,0.314492069,0.316264477,0.315821662,0.312324614,0.312304131,0.309347192,0.316187808,0.314526844,0.316165954,0.323032849,0.322111447,0.322708495,0.828057302,0.634032634,0.631307441,1.278097157,0.679903806,3.774911248,0.89670555,0.989251887,2.20097667,1.063993143,0.763636364,0.138313847,0.61533495,0.358802655,0.675680673,0.99086758,1.004444444,3
151,1,8,0.153396109,0.154481465,0.154209526,0.152825489,0.152820518,0.151520435,0.154160846,0.150803093,0.154154723,0.15852627,0.157979386,0.153413099,0.914372136,0.773811871,0.399138734,1.757178275,1.137039601,0.485526757,0.955883863,0.981333333,0.705793252,1.127131493,1.05,3.666674381,0.684990068,0.653900566,1.181000233,0.974407583,0.987385321,4
152,5,9,0.419525847,0.417056292,0.416799535,0.41122908,0.417635401,0.418430044,0.414207467,0.422048156,0.420682393,0.419927424,0.425278613,0.423872325,1.01501226,1.032263284,0.277961455,1.243275569,1.250892591,0.963840598,1.040394381,0.991869919,1.5306178,0.876855357,1.2,1.392025259,1.206264978,1.457256245,1.130413888,0.982849535,0.983333333,8
153,13,10,0.89642381,0.913642236,0.913589692,0.916329571,0.916215573,0.898237873,0.922946764,0.91098873,0.922778594,0.939997879,0.939793674,0.911620993,0.895590524,0.576923077,0.92817026,0.901204804,0.6150577,1.655107307,0.948569105,0.955380577,4.328004347,1.478276467,0.5,0.404775741,1.029475418,0.608294718,0.758687653,1.01661114,0.991852334,6
154,7,11,0.628158591,0.635690773,0.635220898,0.633255057,0.633206303,0.624544309,0.638719653,0.621416908,0.638706897,0.633395524,0.632445325,0.606778642,0.963317919,0.975524476,0.726519893,1.028335665,1.252629074,0.65117913,1.023777212,0.99009009,0.372994792,0.864158651,1.0,1.68352638,1.08862539,1.243709365,1.139092251,0.990056818,0.988457928,7
155,4,12,0.336901349,0.334158764,0.333701251,0.331111643,0.33110437,0.332739751,0.330166586,0.332605334,0.33015118,0.343224183,0.342321648,0.347535978,0.945733676,0.83675836,0.399940232,0.771950912,1.245601949,1.855586415,1.017605815,0.956521739,2.022661172,1.286267094,1.0,0.570640396,0.937100238,1.178711151,1.443583884,0.956221198,0.955156951,2
156,9,13,0.164862914,0.163729337,0.163456533,0.163182946,0.163166105,0.163536552,0.166334573,0.167401655,0.166313693,0.167541575,0.166974838,0.166195993,0.902655658,0.720789736,0.433684938,0.593357143,0.956655049,3.044777185,0.976773103,1.02739726,0.793894472,1.048709661,1.186813187,0.368103509,0.823167544,0.801982435,0.982701671,1.024630542,1.018912635,3
157,3,14,0.353513198,0.359390488,0.358940642,0.354433014,0.354405798,0.347228519,0.360556047,0.354162362,0.360513479,0.363076848,0.362119049,0.358013178,0.992200605,0.778826531,0.477641765,0.857629058,1.154964817,0.761936254,1.002206146,0.980137227,0.462884828,0.965277232,0.8,1.486593171,0.898221587,1.020305559,1.133427299,0.981395349,0.977375566,4
158,8,15,0.19548508,0.197519884,0.197198495,0.196152818,0.196150321,0.193400319,0.200765243,0.198822862,0.200765786,0.199850747,0.199194145,0.198647338,0.800305147,0.587576486,0.567122366,0.772442414,0.537507632,1.433486111,0.907425463,0.943534483,4.760443164,0.962214231,0.666666667,0.912861784,0.735451424,0.408128444,0.52268414,0.972093023,0.961538462,5
159,11,16,0.308465612,0.311884524,0.311483334,0.310843155,0.31079266,0.306598607,0.315706653,0.311057772,0.315756883,0.306611359,0.305685951,0.304778314,0.95068904,0.762222222,0.652143477,1.010325335,1.096501725,0.953126425,1.015248065,1.00485751,0.577648414,1.300399423,1.0,1.154389533,1.067454713,1.155611987,1.263778635,1.004694836,1.01139477,1
160,16,17,0.235355726,0.237019609,0.236613626,0.233046924,0.233066312,0.23037353,0.236929712,0.232834374,0.236880219,0.239473883,0.238712243,0.237205618,0.903084786,0.710408448,0.429383292,0.759632488,1.02803102,0.37265557,1.020335954,1.032885817,2.282970793,0.922954397,0.8,6.221515738,1.172166766,1.204356703,0.984103439,1.024630542,1.00952381,8
161,12,18,0.32689978,0.325679268,0.325234316,0.320825914,0.320769117,0.320788532,0.3221383,0.321893315,0.322165567,0.333371861,0.332447507,0.334324106,0.969591174,0.996757075,0.709319024,0.664145265,1.416126747,0.718410608,1.028460086,1.007359307,0.763614959,1.198123486,1.619047619,1.778334906,0.955601309,1.307468275,1.568790941,0.958139535,0.975225225,0
162,10,1,0.304291429,0.303764392,0.303232276,0.302021813,0.302054316,0.301653129,0.299226828,0.299591027,0.299210222,0.311634723,0.310607397,0.312479981,1.004717233,0.818882466,0.729001265,1.119135548,1.201127976,2.722292851,1.045092905,1.069736842,1.933263226,0.897205242,1.15,0.234144117,1.464952477,1.573602088,1.129311992,1.039724742,1.036458333,7
163,2,2,0.461949234,0.466161359,0.465583948,0.464413346,0.46448629,0.458939581,0.463796039,0.459058826,0.463775104,0.47170674,0.470569256,0.468748781,1.031094579,1.118222222,0.727479071,1.048460093,1.077730315,1.033242643,1.009017571,1.032679739,0.81888843,0.89708062,1.2875,1.063388906,1.013104488,1.082829121,1.015635836,1.021126761,1.03072873,0
164,14,3,0.174557572,0.174208704,0.173883954,0.172234608,0.172227039,0.172237517,0.173380328,0.173414627,0.173379739,0.176670927,0.175987913,0.177338211,0.942146183,0.88766276,0.594969061,0.96791216,1.107117178,0.935425364,1.032385524,0.998125,1.239934288,1.136258376,0.844444444,1.232662687,1.092668664,1.328135359,1.191977692,0.995302013,0.995124582,2
165,15,4,0.364855743,0.367774737,0.367243578,0.364064682,0.364034568,0.359979639,0.365855159,0.360092748,0.36584958,0.370241215,0.369162808,0.367661567,0.930321129,0.863405392,0.364837023,0.997191894,0.68764866,1.446484021,0.941666887,0.990740741,2.332216842,0.943653569,1.083333333,0.611283154,0.888662365,0.606076228,0.670486291,1.0,0.99522293,5
166,0,5,0.445726227,0.447529933,0.447005669,0.447014603,0.446922933,0.443728243,0.452410024,0.450554198,0.452345809,0.454886366,0.45375716,0.453665738,1.016882975,0.994657875,0.715206363,1.127652072,1.223864233,2.099931285,1.054560081,1.004907975,2.29332381,0.871637408,1.0,0.408106381,1.208719232,1.61675937,1.145568058,1.0,1.000020156,1
167,6,6,0.319213489,0.320923628,0.320413145,0.319872159,0.319792558,0.317194785,0.32249657,0.319790762,0.322470308,0.323267216,0.322233543,0.322317421,0.997140019,1.039735099,0.6434023,1.144038175,1.274595314,0.910515726,1.045785438,1.000603136,1.48899702,1.045549936,1.005555556,1.207633819,1.282414465,1.510607395,1.298146229,1.0,0.9984375,6
168,17,7,0.315847423,0.318018174,0.317577774,0.31472076,0.314659321,0.31162515,0.316964814,0.312515887,0.316960779,0.319434708,0.318412477,0.319002651,0.897881597,0.939390988,0.709475936,0.882242449,0.877246717,2.626421302,1.035594871,1.006024096,5.949537145,1.311825852,0.75,0.320040549,1.937740571,1.354379327,0.975257572,1.005732484,1.0,3
169,1,8,0.154327833,0.153752678,0.153437001,0.153003428,0.153004188,0.153313578,0.153886289,0.154610257,0.153875478,0.155395794,0.154780221,0.15665232,0.86697497,0.751018221,0.626531907,0.822952111,0.703935401,1.94892821,0.93015136,0.967172797,2.51170813,0.977964142,0.75,0.728855932,0.756487491,0.535597644,0.69693943,0.984525274,0.976708075,4
170,5,9,0.419340761,0.418771783,0.418176655,0.418027673,0.418027672,0.418304593,0.425279882,0.423564102,0.425257741,0.421437854,0.420266506,0.420941423,0.916343536,0.728019457,0.750396487,1.003564116,0.843137209,0.971098924,0.990185833,0.994674556,1.678615073,0.967629838,0.7,1.09777696,0.973100022,0.915073329,0.839279241,1.006410256,1.003125,8
171,13,10,0.911640912,0.91103182,0.910812158,0.913943259,0.913992147,0.914353027,0.927820918,0.926989547,0.927773968,0.915419294,0.915044938,0.914570831,1.045399263,1.10111532,1.040304509,1.176451793,1.271962401,1.296868179,1.058775979,1.089108911,1.679982436,1.340455134,1.607142857,0.727627137,1.482315316,1.693776979,1.477608465,1.076423841,1.085075027,6
172,7,11,0.630655055,0.63607194,0.635507706,0.63623804,0.636318645,0.629961852,0.636330907,0.630058714,0.636323149,0.644928112,0.643878754,0.640205827,1.007745119,0.962527233,0.794741737,0.79681473,1.372936462,1.043065045,1.077063742,1.04695122,1.08239316,1.056471313,1.25,0.935000546,1.374986395,1.954099356,1.419009307,1.019607843,1.025316456,7
173,4,12,0.336367176,0.334319527,0.333798007,0.330112112,0.330130078,0.331335049,0.327147894,0.328358307,0.327149236,0.343032372,0.341989284,0.345955991,1.071521641,1.182568438,0.616599184,0.97353049,1.707156409,1.297511625,1.065072704,0.989534884,0.159841096,1.096090904,1.477777778,0.896145128,1.11878304,1.803269617,1.785412061,0.919254658,0.977409639,2
174,9,13,0.164477456,0.165643096,0.165321145,0.165050766,0.165037482,0.16335582,0.166581549,0.164884213,0.166570579,0.166643494,0.165990282,0.165981619,0.905178102,0.884746653,0.634832587,1.125203196,0.87032442,1.658013667,0.982766561,1.003012048,1.717105674,1.049493827,0.9,0.820049756,0.959445707,0.859769138,0.896371733,1.012987013,1.0015625,3
175,3,14,0.358174737,0.357282942,0.356725551,0.354555662,0.354559767,0.354582181,0.357095687,0.357106334,0.357085254,0.362816501,0.361698385,0.364560386,0.925735948,0.65537178,0.647981023,1.051513548,0.833695704,1.710661207,0.982533715,0.954347826,2.279613884,0.953442241,0.875,0.557157112,0.982809991,0.847731811,0.817385847,0.963905325,0.965909091,4
176,8,15,0.195970044,0.197550937,0.197176118,0.195300354,0.195283728,0.193083059,0.197679302,0.195537446,0.197660156,0.204802051,0.204036339,0.203844731,0.890433937,0.677130045,0.484059298,0.946276104,0.811113078,2.736854565,0.97007479,0.981621622,1.614436589,0.955093471,0.775,0.318476455,0.986289517,0.749057669,0.78761525,1.006024096,0.995710192,5
177,11,16,0.309695063,0.312177425,0.311663825,0.30991183,0.309875439,0.30654687,0.314987152,0.311413948,0.314957692,0.307109641,0.306072182,0.305356414,0.852034934,0.707836257,0.828695041,0.737659133,0.397364779,2.274569704,0.897012611,0.986713351,15.20078519,1.061595464,0.666666667,0.453514816,0.960917385,0.358067912,0.41219921,1.024390244,1.011764706,1
178,16,17,0.23726313,0.236562431,0.236135354,0.235525852,0.235497444,0.235518632,0.239900113,0.239879019,0.23986245,0.235037978,0.23417489,0.236415578,0.913083268,0.659761905,0.538432464,0.875729061,0.865687734,1.985733407,0.988959871,0.97025641,3.050917225,1.089163516,0.857142857,0.479579569,0.982251977,0.896230651,0.915521866,0.980162485,0.967567568,8
179,12,18,0.324380293,0.327302008,0.326752907,0.323109119,0.323158229,0.319346383,0.326340865,0.322587278,0.326343237,0.335637338,0.334599685,0.333578605,1.053045696,1.342105263,0.608138271,1.157151698,1.599341251,1.469702642,1.073716985,1.041621622,1.875013442,1.10166083,1.45,0.889182326,1.162784199,1.968914471,1.691128562,1.003508772,1.022727273,0
180,10,1,0.303476207,0.306475288,0.30601944,0.302416805,0.302396127,0.298394348,0.304239779,0.298326461,0.304236405,0.317270471,0.316300472,0.318656837,0.837845281,0.386521465,0.693120604,0.96396582,0.67432075,1.670132624,0.96037477,0.985436893,24.22046507,0.926514737,0.56,0.556663327,0.935105621,0.668020423,0.65122292,1.0625,1.009057316,7
181,2,2,0.462501654,0.46457729,0.464053169,0.461345057,0.461276724,0.457890112,0.464524684,0.468756947,0.4644906,0.468432523,0.467283055,0.4672816,0.908554678,0.807272727,0.605848948,1.027676126,0.874745113,1.574360455,0.991847163,1.019138756,3.881769878,1.160358224,0.654761905,0.397136386,1.081169291,0.925345375,0.945043161,1.044559585,1.038557214,0
182,14,3,0.174633702,0.173302634,0.172968236,0.171540213,0.171533626,0.172161267,0.172518555,0.175265271,0.172510664,0.175520957,0.174837238,0.178561965,0.820670728,0.542361111,0.381266399,0.96646141,0.585871653,1.844964611,0.921482892,0.995475113,4.416571704,1.133645273,0.714285714,0.519589049,0.847317438,0.456383947,0.614201563,1.027535931,1.009433962,2
183,15,4,0.364147487,0.367750393,0.367227298,0.368006753,0.367973553,0.363226624,0.370817052,0.367955487,0.370808096,0.367802521,0.366714964,0.360898023,0.91780817,0.838930348,0.573243109,0.835144198,1.076945971,1.367004821,1.019945248,1.046082949,2.900141634,1.178861303,1.166666667,0.698262885,1.131445917,1.218268045,1.18242704,1.045,1.035714286,5
184,0,5,0.444282925,0.448463868,0.447896964,0.444938322,0.444923843,0.439438255,0.449624264,0.447939129,0.44960411,0.456088027,0.454942854,0.451686825,0.952036012,0.8,0.447866841,1.118941965,1.269762322,1.543241652,1.025747288,1.0,0.787547409,1.013363777,1.416666667,0.480602871,1.070772188,1.291257917,1.272257955,0.956937799,0.988479263,1
185,6,6,0.319145613,0.318012089,0.317491613,0.317875368,0.31787159,0.318016809,0.322862455,0.324714222,0.322862594,0.311893866,0.310872187,0.311569394,0.883538855,0.644541485,0.350390041,1.191212884,0.762580687,1.508573195,0.958941317,1.004090909,5.199965717,0.997545786,0.714285714,0.56999284,0.915150973,0.662234617,0.74856497,1.025870647,1.0,6
186,17,7,0.316537683,0.315743892,0.314996262,0.311521526,0.311747142,0.311466818,0.316877381,0.315860123,0.316899899,0.31528765,0.314261143,0.311894037,0.892637589,0.628743961,0.525358494,0.871189514,0.896676228,1.233284858,0.988107481,0.945121951,2.637259187,0.878693232,0.75,0.750615312,1.049371051,0.887543062,0.807026232,0.947136564,0.953191489,3
187,1,8,0.152922408,0.154263712,0.153954206,0.152805893,0.152796292,0.150774362,0.158031004,0.155284845,0.158031941,0.151990295,0.151374594,0.14996209,0.844525021,0.53689759,0.476790671,0.757917731,0.822488812,2.252566538,1.007030632,1.08411215,35.34766493,1.392489843,0.777777778,0.705514173,1.210069819,1.072769638,0.994262307,1.131052632,1.103960396,4
188,5,9,0.421460953,0.417799719,0.417245011,0.411274165,0.41120888,0.413661615,0.408923482,0.41220384,0.408898222,0.426000616,0.424871412,0.429298077,0.957535659,1.331360947,0.623360076,0.913963227,1.41229728,0.697455185,1.035461531,1.001762115,0.394722593,0.943059963,1.166666667,2.702553379,1.110986412,1.421139385,1.354609684,0.988669437,1.004587156,8
189,13,10,0.912405935,0.913917375,0.913716165,0.910701588,0.910701588,0.908807661,0.90725516,0.90532954,0.907247407,0.905617635,0.905202824,0.904752535,1.102181345,1.058064516,0.965890338,1.314672791,1.807024836,0.549702408,1.120205112,1.063101604,0.444040683,0.904590733,1.6,2.081699475,1.437684004,2.898774827,1.733058101,1.006818182,1.024861878,6
190,7,11,0.630905331,0.636850278,0.636345036,0.631728512,0.631646143,0.624565044,0.632783575,0.625154671,0.632722399,0.647454366,0.646485102,0.641969315,0.97131085,0.788794926,0.723116796,0.814709116,0.992097289,0.836923996,1.009557893,1.0,1.664558997,1.16110127,1.0,1.243403652,1.01780857,1.097465248,1.085082135,1.000560526,1.005347594,7
191,4,12,0.336714826,0.334664968,0.334309902,0.330953586,0.330802768,0.331831831,0.333227772,0.333660072,0.333201591,0.340786779,0.339815929,0.342493831,0.874549512,0.831055499,0.789399032,1.1919596,0.612692359,1.600818469,0.915429246,0.95257328,1.733065066,0.755955555,0.8,0.609858612,0.681837675,0.451427709,0.522049062,0.973262032,0.96373057,2
192,9,13,0.165033946,0.164876893,0.164550371,0.162482122,0.162497208,0.162040597,0.163712951,0.163062018,0.163705468,0.168344572,0.167722671,0.168881701,0.864486216,0.530632037,0.536900425,1.079928911,0.706634017,2.521665695,0.982303816,1.052636641,11.03235648,1.075608793,0.75,0.604843435,1.338898368,0.847267951,0.72850563,1.092638037,1.063583815,3
193,3,14,0.358678842,0.356023833,0.355519742,0.354309798,0.354264336,0.355875972,0.354891546,0.356377775,0.354860946,0.356487956,0.355466824,0.360034739,0.909688354,0.55672697,0.662177165,1.200396318,1.023508597,0.793908757,1.004836147,0.97979798,1.931763401,1.043079893,0.571428571,1.497049871,1.021709186,1.046539427,1.048081057,1.0,0.973684211,4
194,8,15,0.197508598,0.196797153,0.196435837,0.194761975,0.194772075,0.194797743,0.198714303,0.198714338,0.198708981,0.198863425,0.198137297,0.200301005,0.878446464,0.545934959,0.475355474,0.883820617,0.79406434,1.565280836,0.978520462,1.010050251,3.081793042,0.995818089,0.714285714,1.005075083,1.063882598,0.812804366,0.784855694,1.023497268,1.021052632,5
195,11,16,0.31082476,0.309855195,0.309335745,0.304973532,0.308958799,0.309026869,0.307786439,0.311892855,0.311860215,0.311195332,0.314294196,0.313115808,0.873184172,0.689627995,0.580717941,1.0696308,0.781810036,1.141563107,0.968388648,1.008523632,1.289515579,1.166804509,0.833333333,1.100809019,0.922013693,0.735316988,0.860098439,1.014285714,0.995098039,1
196,16,17,0.236355151,0.238805285,0.23840451,0.237449014,0.237418346,0.234136842,0.238165447,0.235176892,0.238144956,0.238004069,0.237171909,0.236659401,0.944007563,1.041758242,0.461345932,1.019162527,1.132750988,1.89223568,1.027853651,0.991428571,2.515480582,0.874115532,1.125,0.48983225,1.08522575,1.313207716,1.059026056,0.97486911,0.975124378,8
197,12,18,0.326576431,0.32599508,0.325326684,0.323717493,0.323836817,0.323415519,0.327575012,0.326788832,0.327570504,0.328080186,0.327030395,0.329295913,0.972133064,1.042305904,0.566676374,0.941998274,1.089782324,1.288043062,1.020052084,1.054368932,1.026117744,1.134539089,1.15,0.648423182,1.233077948,1.215561736,1.14971324,1.061780105,1.069796954,0
198,10,1,0.306077848,0.303986727,0.303473887,0.301834084,0.303903181,0.305188562,0.305897518,0.309493392,0.308116021,0.318733499,0.319937619,0.321809826,0.882663045,0.617460317,0.590226528,1.042999627,0.897553485,1.147984743,1.013924557,1.055682348,11.57872928,1.082036107,0.704545455,1.171219778,1.302182551,1.156940791,0.933495174,1.080575726,1.039473684,7
199,2,2,0.464606345,0.460754316,0.460156892,0.454545455,0.454559066,0.457332229,0.461598409,0.462881663,0.461622965,0.462953739,0.461750525,0.469119595,0.922906724,0.744724026,0.463477168,0.995791887,0.908158868,1.829482799,0.997076345,1.009661836,1.770743052,1.152717316,0.857142857,0.386011455,0.993805765,0.972382027,0.995820579,1.025237727,1.02020202,0
200,14,3,0.174134898,0.17333955,0.173015534,0.171341511,0.171318982,0.171514174,0.175706899,0.175909234,0.175709303,0.177573845,0.17688132,0.178944816,0.954278982,0.99853229,0.620105006,1.059575999,1.129329755,3.369427726,0.987264888,0.978947368,0.96992946,1.022919407,1.25,0.332492315,0.811093343,0.884275654,1.140839724,0.950769231,0.971466923,2
201,15,4,0.364913896,0.366382101,0.365792141,0.363228382,0.363228382,0.360781659,0.369338005,0.366502478,0.369323542,0.371249534,0.370095703,0.370148096,0.906270231,0.755597015,0.488412637,1.216561833,0.73226834,2.694497762,0.947033011,0.974717795,8.048261974,0.915129716,0.666666667,0.20252878,0.934837254,0.586706472,0.675122048,0.99009901,0.983173077,5
202,0,5,0.446776007,0.444573672,0.443829363,0.438779195,0.438965097,0.440195893,0.440209834,0.441733581,0.440286118,0.431572253,0.430298811,0.43496034,1.004652083,1.04433134,0.526510695,0.991366434,2.848199932,0.899360791,1.193594332,1.090425869,1.391140898,0.911085325,1.541666667,2.157929955,2.164048389,6.802344087,2.754324599,0.988332482,0.990566038,1
203,6,6,0.318020762,0.320452742,0.319895687,0.315945778,0.320223499,0.316874695,0.316488027,0.318110929,0.321005466,0.324442245,0.327757554,0.323366087,0.947909605,1.158730159,0.458147226,0.768398459,0.747428031,1.628687283,0.936764531,0.986547085,1.804868912,0.792471546,1.0,0.499904265,0.823456405,0.50556911,0.617296719,0.985436893,0.985915493,6
204,17,7,0.314842379,0.318155831,0.317625421,0.314041376,0.314010058,0.309777655,0.324441386,0.320338026,0.324401833,0.326897475,0.325800201,0.32454844,0.850883336,0.82347973,0.435915049,0.87416819,0.555452008,2.397486894,0.892247625,0.920689655,3.429750273,1.057516685,0.704678363,0.628274291,0.562284464,0.322578468,0.5748755,0.951207729,0.941177723,3
205,1,8,0.152735747,0.153972483,0.153633864,0.151298689,0.152235995,0.150444674,0.15350816,0.152659703,0.154394839,0.157294771,0.15751399,0.156571163,0.861409602,0.56468969,0.347847684,1.094020981,0.735316473,2.018016145,0.937330438,0.953586498,2.300783778,1.078516059,0.800653595,0.504975994,0.733871385,0.516651249,0.764631226,0.963393287,0.963375216,4
206,5,9,0.420477649,0.416899469,0.416261349,0.413757603,0.413828605,0.416390673,0.422689702,0.4253383,0.422735055,0.425910243,0.424648775,0.430484796,0.975629738,1.10952381,0.676235758,0.788214803,2.19634763,0.924090643,1.152588411,1.045064378,1.629514683,1.039485294,1.285714286,1.6659767,1.934861657,4.6042543,2.345800344,1.005560704,1.007847534,8
207,13,10,0.902058986,0.913915267,0.913778878,0.903187652,0.903096077,0.89077469,0.890403917,0.878849779,0.890327064,0.928244802,0.927974284,0.917214589,0.960362867,0.849390244,2.159203239,1.104300053,0.908052819,0.712983261,0.943606455,0.962441315,0.369961719,0.995880277,1.083333333,3.154458757,0.684715833,0.577213491,0.89229864,0.95959596,0.95631068,6
208,7,11,0.631999843,0.639633357,0.639042925,0.632542303,0.640380567,0.631785357,0.641995537,0.642118804,0.650256335,0.636628736,0.643774998,0.630268768,1.014504715,1.19338843,0.408020433,1.457610061,1.004884759,1.434567156,1.015024309,1.026640401,0.457577805,0.829761157,1.25,0.370473662,1.054190253,1.153288471,0.908228818,1.020725389,1.02393914,7
209,4,12,0.333355011,0.335306635,0.334738936,0.331703403,0.331707,0.328783092,0.333641158,0.33114169,0.333631303,0.357325319,0.356187635,0.356472306,0.819422275,0.563492063,0.570840844,1.73584457,0.571417676,1.508322275,0.856610546,0.872643667,0.749400082,1.032331997,0.535714286,0.57132609,0.333242538,0.184946876,0.58086066,0.93492209,0.908510638,2
210,9,13,0.16543261,0.16446715,0.164108449,0.163130714,0.163119209,0.163512591,0.165155358,0.165545718,0.165138596,0.173565676,0.172837048,0.175131363,0.96617413,0.80075188,0.390714113,0.836033161,1.480329909,3.864398966,1.046422755,1.069642857,1.561672784,1.028226519,1.625,0.206836763,1.13099334,1.608581605,1.500748599,1.001463415,1.018691589,3
211,3,14,0.354841677,0.358191933,0.357638649,0.354939165,0.35488875,0.350542912,0.358282259,0.353591602,0.358253029,0.366359163,0.365161561,0.363442255,0.902418615,0.717312834,0.473830558,0.758766078,0.837010284,1.194137531,0.969158125,0.98546857,1.741563572,1.507942429,0.785714286,0.988456218,0.783150787,0.736081781,1.089776323,1.002463054,0.990521327,4
212,8,15,0.195671902,0.197750197,0.197330791,0.195606441,0.195090004,0.192332146,0.198489283,0.195280274,0.197953652,0.204837201,0.203385412,0.203431008,0.796548951,0.542132353,0.551482548,0.773312188,0.44334095,1.767093401,0.864659015,0.889025535,4.83183489,1.006226345,0.666007905,0.839456904,0.515347745,0.21756463,0.438295083,0.937503263,0.923758034,5
213,11,16,0.309663029,0.311725395,0.311140078,0.310887863,0.310873326,0.307860086,0.307115421,0.304332308,0.307090771,0.318323856,0.317199015,0.317344123,0.973073202,1.024118738,0.631940191,0.958116239,1.708626061,1.520966578,1.049201598,0.999103139,0.685708975,1.343485957,1.035714286,0.506815707,1.16175066,1.636327631,1.991107713,0.988328203,0.98943662,1
214,16,17,0.236997536,0.237865226,0.237328772,0.235463403,0.235495821,0.233862605,0.241499053,0.239047326,0.241491406,0.240568212,0.239600707,0.239595597,0.882780439,0.668664384,0.566480046,0.851943928,0.779727262,1.28582194,0.963359558,0.974358974,1.548348938,1.15644706,1.091911765,1.881576092,0.966488579,0.679819764,0.82979435,0.976470458,0.984162896,8
215,12,18,0.323452888,0.327517018,0.327150302,0.324900814,0.324691254,0.319647066,0.334387902,0.330093006,0.334401728,0.307568342,0.306388924,0.305571764,0.967135758,1.138059701,0.505464014,1.209363063,1.612412088,0.722138874,1.098842069,1.110020071,5.992832072,0.928677632,2.083333333,1.76554054,1.757224117,3.042071633,1.562567453,1.00456621,1.07860262,0
216,10,1,0.30245331,0.306047306,0.305358439,0.303335543,0.301641957,0.297130985,0.308014529,0.302418091,0.306413352,0.301965889,0.298919725,0.300023362,0.872184939,0.805555556,0.465517447,0.397802654,1.111496467,1.815418958,1.006756163,0.948852459,2.346252003,1.073497194,0.9375,0.332943652,0.796237424,1.083361018,1.202851489,0.920962042,0.929920695,7
217,2,2,0.462035758,0.459258488,0.458721651,0.457828299,0.457675466,0.459370419,0.464314453,0.46716516,0.464793531,0.469683364,0.468453091,0.474474289,1.088714842,1.751340996,0.341375238,2.103990302,2.106802768,0.834593467,1.138497796,1.067244504,2.150954609,0.962173968,3.0,1.854541391,1.874813388,4.157333697,2.115189957,0.985034076,1.009581882,0
218,14,3,0.172648248,0.174847057,0.174441871,0.171361348,0.17137241,0.16875363,0.174756272,0.172193769,0.174716751,0.177126845,0.176295037,0.175441464,0.703213463,0.607429637,1.111798362,0.914307529,0.53931363,2.600287578,0.931745578,0.997569444,15.25926092,0.925549044,0.6,0.302536922,0.881862754,0.454969663,0.528267796,1.027048979,1.008896797,2
219,15,4,0.365496074,0.364498469,0.363091856,0.36366664,0.363145372,0.364376173,0.366351475,0.369709182,0.368143466,0.36181841,0.362237288,0.366173334,0.932073357,1.164965986,0.777793099,0.638237759,0.497282377,1.60213235,0.905272982,0.982638889,0.682853959,0.892534965,0.875,0.179361973,0.712994327,0.35592164,0.443811721,0.98390297,0.982332155,5
220,0,5,0.447151764,0.446507884,0.445805328,0.440688004,0.440762675,0.440290032,0.442109377,0.442931386,0.442087737,0.455758982,0.45434698,0.457053281,1.015905918,1.202605459,1.240404434,1.760058712,4.046755943,0.957721636,1.337032896,1.004255319,0.741114766,1.212722116,1.0,1.394160237,3.081882884,14.28631711,4.759618828,1.0,1.003584229,1
221,6,6,0.319443714,0.317555033,0.316886225,0.316201919,0.314315524,0.315254502,0.312720828,0.312332237,0.310921874,0.317259753,0.31414037,0.321102729,0.998237945,1.171063312,0.650122493,1.144177896,0.654509043,2.928896469,0.972789636,0.961470985,2.482129627,1.015964531,2.75,0.128094936,1.235423138,0.743904493,0.647826859,0.941470249,0.93772242,6
222,17,7,0.31334589,0.316317898,0.315025858,0.31093332,0.311593608,0.307628028,0.316085176,0.311573262,0.316111865,0.320284148,0.31897063,0.316025834,0.964215412,0.827631187,0.498463846,1.044909235,2.165709178,1.775542485,1.207460608,0.996515679,20.23682382,1.299106407,0.666666667,0.440321809,2.46330749,7.156711063,2.980937242,1.0,1.0,3
223,1,8,0.15299772,0.152204766,0.151829731,0.149839238,0.149823585,0.150037834,0.152202382,0.153841722,0.152121327,0.152073887,0.151442903,0.1536668,0.770275241,0.490925926,0.622765206,1.383445172,0.712798147,0.674982259,0.95899571,0.993309859,4.811898,0.896716991,0.422222222,3.746230072,0.834010034,0.632405553,0.678076512,1.066533865,1.010889328,4
224,5,9,0.419303326,0.418214605,0.417523044,0.406414209,0.416906964,0.416925086,0.409803483,0.420946616,0.418283086,0.42892234,0.435618067,0.426870072,1.035489456,0.991414141,0.459740526,0.819012541,2.216191583,0.709527275,1.136642566,1.052464789,0.537625459,1.186829608,1.333333333,3.195472129,1.988839622,3.895916196,2.34586077,1.028985507,1.03046595,8
225,13,10,0.920583095,0.90648855,0.906197558,0.911252363,0.897560832,0.911432257,0.927319683,0.928023923,0.913939273,0.906604634,0.892790226,0.920717466,0.986076561,0.750533049,1.568298894,2.429286403,1.540252654,1.025007779,1.037266422,0.951369978,1.010504299,1.060634602,1.188888889,0.548807475,0.926277737,1.487445659,1.561567221,0.932393702,0.950694034,6
226,7,11,0.638101691,0.629712564,0.628974689,0.627538487,0.627551334,0.634953507,0.628825814,0.635618097,0.628808198,0.634012588,0.632542137,0.64286373,0.950975054,0.92921147,0.826787834,1.65249619,0.94735585,0.963223944,0.989074611,0.947024673,1.368135538,0.90212656,0.727272727,1.162941988,0.925935104,0.889681026,0.863841773,0.951239617,0.961904624,7
227,4,12,0.332969113,0.33779728,0.337114967,0.333715334,0.333682579,0.327814642,0.336942346,0.331116311,0.336991032,0.329098166,0.327693116,0.325457389,0.807944692,0.465432099,0.424427121,0.469688658,0.505975513,1.709235684,0.923985246,0.904839329,2.604493214,0.953075924,0.597840756,0.075234753,0.884810448,0.400662035,0.457531211,0.976746534,0.943901016,2
228,9,13,0.162839393,0.165091605,0.164664255,0.164033633,0.164040714,0.161165794,0.165758927,0.162994445,0.165754208,0.160302183,0.159446683,0.158822199,0.793154881,0.422257301,0.244260101,0.71841305,0.487499922,1.416947201,0.912029709,0.953703704,6.542016098,0.868710534,0.583333333,0.307779367,0.788124923,0.351136346,0.41121654,1.03164557,0.99609375,3
229,3,14,0.356791099,0.355724575,0.355041532,0.351254356,0.351219625,0.35131287,0.352904576,0.349925181,0.353039616,0.352882344,0.351372953,0.347271534,0.906840734,0.794797688,0.780990002,1.5061457,1.299623428,0.978115267,1.002010494,0.925644917,0.707175597,1.03027331,1.0,1.29887519,0.809456361,1.021872162,1.347961337,0.92718102,0.911646586,4
230,8,15,0.195586801,0.197627805,0.197161576,0.196606793,0.196591511,0.193824787,0.200387839,0.197857479,0.200459701,0.207087125,0.206083798,0.205623763,0.863238959,0.634132154,0.623629785,1.531775354,1.269422962,0.531064699,0.950813796,0.879409335,0.29205616,1.117563988,0.692307692,6.431581982,0.43377012,0.579193837,1.367161737,0.894367155,0.887795276,5
231,11,16,0.31071849,0.308101662,0.307425315,0.303800661,0.303769513,0.305550201,0.308354235,0.309972913,0.308286247,0.31299034,0.3116593,0.31644963,0.85834502,0.584249084,0.463943272,0.691076749,1.080950528,1.156137005,1.021703533,1.002721552,2.643537795,0.99682804,0.973684211,0.294811842,1.226719161,1.295164697,1.064101257,0.9956,0.982521531,1
232,16,17,0.234260525,0.238222338,0.2376834,0.23681865,0.236768909,0.232001537,0.237194863,0.233731465,0.237248993,0.236912176,0.235711116,0.234622213,0.864953399,0.931957187,0.387054575,1.586988517,1.286656121,0.949005898,1.044984243,1.002795031,3.218047072,0.916567074,1.638888889,1.632594458,1.460958544,1.731155314,1.135599488,0.935603769,0.965,8
233,12,18,0.32431435,0.327838712,0.327174062,0.325169723,0.325187433,0.320592674,0.323699076,0.319557459,0.32379166,0.329576199,0.328207377,0.327385232,0.886367227,0.766853933,0.302460372,0.36643696,1.448340336,1.342696634,1.090880505,1.160454849,4.028371634,0.958484093,2.013157895,0.418645248,2.121564782,2.933680811,1.427514812,1.036213992,1.119548623,0
234,10,1,0.305324109,0.303001443,0.302443719,0.301619994,0.301728385,0.30311309,0.303550452,0.30502133,0.303482286,0.308732609,0.307633107,0.312154126,0.918688079,0.996732026,0.549136408,1.440276396,1.220986859,0.972446871,1.027062399,1.023844726,1.7581345,1.251004137,1.121794872,1.282535143,1.091152953,1.348777543,1.398671569,1.003015018,1.004016064,7
235,2,2,0.464985406,0.466047722,0.465480344,0.463647569,0.463482132,0.461219848,0.478568455,0.474835445,0.478390461,0.46940834,0.468104887,0.467874014,0.955866,1.121183206,0.839727831,1.297585412,1.614178114,1.338761269,1.07892449,1.007407407,0.693085381,1.09502122,1.335164835,0.587238394,1.70984038,2.923147258,1.702149979,0.968981248,0.978431373,0
236,14,3,0.174812948,0.174152025,0.173765731,0.171322578,0.171336925,0.171373711,0.172967378,0.173006982,0.172978271,0.17538333,0.174648668,0.176692443,0.836278607,0.543909348,0.440783273,0.674707364,0.904626379,1.691095771,0.983646845,1.000746269,2.159748508,0.870796361,0.964285714,0.598221339,0.982698954,0.831706808,0.8303146,1.018949196,1.017968127,2
237,15,4,0.36536943,0.364934465,0.364621237,0.363769937,0.360694451,0.360106786,0.380364918,0.377811162,0.378002092,0.354288732,0.350815278,0.356410317,0.942915553,0.93242436,0.708411619,1.159625157,1.805546593,1.172335368,1.063402144,0.890095389,0.321103711,1.037866019,1.285714286,0.865029954,1.110336874,2.445736213,1.907815854,0.775604213,0.882616487,5
238,0,5,0.443976552,0.446324027,0.446089415,0.444833888,0.444587517,0.441687857,0.462327437,0.459074234,0.462424905,0.434192599,0.433084453,0.432957771,1.00296466,1.095752707,0.678781809,1.732125621,1.614682003,0.9255596,1.00189606,0.899004722,0.092046958,1.288586175,1.762820513,1.499175113,0.606835468,1.149826488,1.878899061,0.814146423,0.852339426,1
239,6,6,0.318372821,0.3157781,0.314955184,0.312139969,0.31088772,0.312503885,0.31851759,0.318529699,0.316988962,0.310175761,0.307149766,0.31382332,0.853909698,0.63,0.513759009,0.629767994,0.987533455,2.366895184,1.017458496,1.031613372,7.18753193,0.937517431,0.764705882,0.130051366,1.167203095,1.219507785,0.954744429,1.061016949,1.039215686,6
240,17,7,0.315954326,0.314324792,0.313791855,0.312419055,0.312331094,0.31249102,0.321041615,0.321485767,0.32117679,0.302002557,0.300669822,0.306571974,0.926064827,1.104076087,0.670111646,1.061956214,2.011119382,1.510696147,1.083818783,1.029642857,2.491929486,0.939876559,1.431818182,0.425120153,1.247701257,2.592528609,1.959936289,0.974228029,0.995295442,3
241,1,8,0.152968182,0.154594546,0.154135805,0.152927243,0.152746325,0.150437652,0.160396531,0.158177845,0.160451391,0.158123331,0.157179802,0.157046477,0.754112898,0.231906241,0.502820164,1.078095172,0.704364379,2.424406488,0.980607015,1.05141844,53.76019407,1.073189843,0.584347826,0.393380151,1.163105466,0.810694743,0.733739701,1.163530466,1.060051926,4
242,5,9,0.414958538,0.420280051,0.419512132,0.414332024,0.414674887,0.408191536,0.432418215,0.424977517,0.432353807,0.401559532,0.400060781,0.396932656,0.890516734,0.63268234,0.469475325,0.624679942,1.476070301,0.399197511,1.034773694,1.005976066,0.212593588,1.185000157,1.203634085,3.447778252,0.943606563,1.564642263,1.624582325,0.948734852,0.946742275,8
243,13,10,0.906922038,0.914716655,0.915882537,0.920150733,0.907472473,0.899132726,0.939305917,0.918339687,0.925251067,0.91866831,0.904922763,0.911863053,1.002981863,1.017118951,0.763338916,1.177561735,1.578853152,0.782066615,1.059291026,0.992276436,0.840581909,1.218346581,1.176923077,2.167295438,1.095682261,2.023960521,1.844532904,0.973221757,1.000990099,6
244,7,11,0.629460366,0.638497267,0.638091378,0.638811523,0.638676739,0.628443332,0.644089038,0.633888534,0.643995296,0.639816179,0.639102402,0.631693663,1.03571683,1.136842105,0.468869222,1.221243936,1.934293644,0.562608864,1.086551215,1.01969697,0.36356083,1.148460278,1.444444444,5.834761628,1.157939965,2.442319231,2.329894391,0.993415638,1.007905138,7
245,4,12,0.331790741,0.334661914,0.333279401,0.330991491,0.331968548,0.328039903,0.335117451,0.331939841,0.335421378,0.336984897,0.335729926,0.33552473,0.956776701,1.109090909,0.478319291,0.88998833,1.100302554,1.459212843,1.020428869,0.97810219,2.533053725,0.814558933,1.4,0.634687484,1.091847855,1.247531259,0.973692925,0.949596774,0.948473282,2
246,9,13,0.163076575,0.164964179,0.164367283,0.162345076,0.162592443,0.160156868,0.168007217,0.165480504,0.168069085,0.164648181,0.163843788,0.163296288,0.853990616,0.721800953,0.45463256,0.774930017,1.457503089,2.148537432,1.058160193,0.989433962,8.898249495,0.972281334,1.083333333,0.747376223,1.447297923,2.395333364,1.453860342,0.955982906,1.004016064,3
247,3,14,0.358364139,0.354975916,0.354503931,0.353451547,0.35331718,0.355701893,0.360819342,0.363025209,0.360945242,0.358590531,0.357037677,0.362680159,0.939445396,0.937578887,0.512917445,1.530736388,1.550561289,0.725058705,1.058814621,0.94154475,1.029938761,0.828860181,1.590909091,2.0914274,1.40630572,2.872817285,1.44666216,0.880828001,0.905002947,4
248,8,15,0.196368787,0.198435761,0.19818036,0.196676347,0.197846362,0.195039804,0.201497429,0.199947294,0.202952104,0.200651948,0.201341889,0.19902708,0.905703942,0.761448349,0.432193353,0.612959878,1.409440503,1.284886317,1.053417549,0.970075758,0.852913969,1.244648731,1.272727273,1.042124439,1.12284668,1.777392562,1.62610514,0.916702654,0.93625498,5
249,11,16,0.310582705,0.309593725,0.308949636,0.307908669,0.307534039,0.307529398,0.315250585,0.315159037,0.315153513,0.307120122,0.306123859,0.309038336,0.95689825,0.873660362,0.37109014,1.248898684,1.29515042,0.819942732,1.028624475,1.000728332,0.7272946,1.097035578,2.346405229,2.047358599,0.901878232,1.407692986,1.44453164,0.873766767,0.937735849,1
250,16,17,0.234806333,0.237467099,0.237080254,0.235616145,0.237281359,0.233798984,0.242517817,0.242396775,0.24617819,0.237177771,0.240054769,0.234945836,0.923402399,1.288727524,0.529202142,1.852915123,2.0354519,0.382906631,1.100066428,1.045470449,0.372193561,0.972979308,2.754985755,4.68689796,0.929302712,3.18674735,2.09835088,0.840475529,0.959595926,8
251,12,18,0.322627845,0.32815317,0.327680819,0.323692698,0.323512928,0.316894707,0.326862334,0.321472547,0.326825683,0.3322709,0.331076425,0.328965405,0.957642743,1.507267442,0.526839682,1.018116584,1.993471178,0.388646648,1.051024708,0.951388889,0.217729675,1.206313972,1.952380952,4.984561564,0.750410524,1.756977106,2.334987475,0.840961098,0.912378167,0
252,10,1,0.305060392,0.304144925,0.303665901,0.30275338,0.302745593,0.302880766,0.307939937,0.308087577,0.307931124,0.313502304,0.312405059,0.315345193,0.921028995,1.072815534,0.906091559,0.67758326,1.657808864,2.0445488,1.123030265,0.976653696,3.150350523,1.282090829,1.0,0.325477983,2.178052298,3.614275127,1.932808125,0.973390558,0.973469388,7
253,2,2,0.464193583,0.460158768,0.459588642,0.459660313,0.459624526,0.462769045,0.461875986,0.465060424,0.461877258,0.456812057,0.455705122,0.462092529,0.943939323,0.945,0.604235484,0.768338747,0.872138615,3.402125508,1.006673433,1.022258362,5.759205536,1.20368954,0.768421053,0.189946373,1.143703158,1.073558907,0.986435462,1.024888889,1.032944843,0
254,14,3,0.174298121,0.173411054,0.173095289,0.171650104,0.171613782,0.171898608,0.171127537,0.171343859,0.171094771,0.175398527,0.17475077,0.176824294,0.940346174,0.620523416,0.501723273,1.066734493,1.493115117,0.484724538,1.05432601,0.94745098,0.426409772,1.138290465,1.625,2.792586623,1.065698115,1.76760692,1.608893851,0.885470085,0.898170732,2
255,15,4,0.364559486,0.363739377,0.36324438,0.361132573,0.361124979,0.360955335,0.375637251,0.375389684,0.375348697,0.368843749,0.367671582,0.370832893,0.913495986,0.812301587,0.664452538,0.797783529,1.549617221,2.661829124,1.084683784,0.999236641,1.014065982,1.138521729,1.432748538,0.242355089,1.683300418,2.741775563,1.692165363,0.954201681,0.969907687,5
256,0,5,0.449505741,0.447176501,0.445805453,0.443733608,0.444606878,0.445442601,0.44974558,0.449561671,0.44982187,0.45024246,0.449089302,0.452046313,0.901247586,0.594202899,0.598424194,1.742421126,1.114758959,0.876972859,1.029615617,1.009070295,1.851763561,1.117065157,1.098461538,1.274980472,1.565943076,1.407128663,1.160579141,1.012899906,1.007050367,1
257,6,6,0.320184577,0.317523138,0.317054304,0.312075226,0.312046174,0.313675736,0.318915624,0.320486968,0.318920916,0.321802567,0.320821061,0.325274815,0.841787741,0.512459906,0.487213073,1.079539993,0.763528083,0.924574218,0.966149148,0.946007605,1.904425072,1.344752966,0.590909091,1.203246223,0.906641386,0.694122978,0.906353272,0.983898305,0.966,6
258,17,7,0.315153883,0.318499163,0.318025821,0.315333732,0.313853389,0.30947859,0.327218726,0.320223765,0.325291904,0.314708166,0.312075125,0.311572815,0.915927709,0.566352429,0.590315748,0.788434871,1.631369181,0.855317118,1.086899151,1.010305344,1.681802295,1.075289222,1.272727273,1.257868657,1.622586603,2.814111317,1.67816898,0.959401709,1.008064516,3
259,1,8,0.153213086,0.152234332,0.151897729,0.151328318,0.151376831,0.15177877,0.157674639,0.158116444,0.157680343,0.151042594,0.150430851,0.152548807,0.863415075,0.652334152,0.422502479,0.668572731,1.493298814,2.332686005,1.121208139,1.049618321,14.04562314,1.140161761,1.0,0.463176392,1.730252293,3.648610321,1.718576336,1.050089488,1.036437247,4
260,5,9,0.418493493,0.417473627,0.416935156,0.413851374,0.413818479,0.413310078,0.425352631,0.425084761,0.425127004,0.411438706,0.410279261,0.413590967,0.915441591,0.623251748,0.911231102,0.526995312,1.739341902,2.745845086,1.098338473,0.965671642,4.175035304,1.366603433,0.85,0.253859693,0.86494936,2.819984898,2.24039722,0.97543063,0.970817121,8
261,13,10,0.902010257,0.91567934,0.91548048,0.919456067,0.919506217,0.905260012,0.913045006,0.898068138,0.912745816,0.916937628,0.916543358,0.902634814,1.053272742,1.081666667,1.743287017,1.151859296,1.599301204,1.205669273,1.1043104,0.953135768,1.624612934,1.112442522,1.473684211,0.660696166,1.589138942,3.001553252,1.840431154,0.903322261,0.928704881,6
262,7,11,0.628631347,0.626406326,0.625949229,0.620843005,0.6244579,0.626608898,0.621502047,0.625880996,0.62564572,0.625779508,0.628391141,0.627413674,0.919668835,0.945652174,0.504873406,1.208376171,0.950971455,1.639409549,0.969443867,0.984253986,2.044446547,1.075196299,0.954545455,0.452921585,0.736425437,0.721536651,0.997153402,0.998809524,1.001899337,7
263,4,12,0.333141553,0.335747878,0.335198065,0.329380202,0.335288049,0.3316336,0.330834711,0.333458625,0.33680034,0.344292017,0.34905604,0.342289021,0.925495898,0.915490196,0.450134885,0.778521636,1.404323931,0.996010265,1.046699419,0.991448914,1.871458618,1.114780814,1.361111111,1.207247578,1.093458966,1.637848102,1.53180658,0.962934363,0.984317343,2
264,9,13,0.163318525,0.165402423,0.165102391,0.164360866,0.164307594,0.161591732,0.164891621,0.162248408,0.164902346,0.168838222,0.16817399,0.167479347,0.861949394,0.69054414,0.444835034,0.492902175,1.124198063,2.140989572,0.98875483,0.971910112,0.694489104,1.202509903,0.875,0.402252873,0.752746624,0.890639542,1.265735539,0.987854251,0.974708171,3
265,3,14,0.355019846,0.357984082,0.357474188,0.35256536,0.35758437,0.353545806,0.35266956,0.354466335,0.358390865,0.359215071,0.363948459,0.359394105,0.933171608,0.74512489,0.482476888,1.232563589,1.11010638,0.608696376,1.007183836,0.951865038,0.723016992,1.076761225,1.0625,3.305883992,0.779843085,1.077372352,1.198759273,0.942735997,0.9529224,4
266,8,15,0.195976083,0.197623038,0.197259943,0.196322381,0.195789527,0.193414037,0.19907317,0.196006541,0.198385739,0.204415085,0.203008489,0.203433763,0.918109365,0.975170068,0.338449959,0.945611771,1.066146397,1.293120154,0.976800432,0.945848375,0.660145708,1.01585483,1.1625,0.807347251,0.786732643,0.785015673,1.0941666,0.93385214,0.943150866,5
267,11,16,0.311786717,0.310761777,0.310199155,0.309200113,0.309482515,0.309534373,0.317205572,0.317256789,0.317209025,0.313894339,0.31291101,0.315891905,0.887997974,0.683890578,0.591528239,0.89722047,0.809709694,1.502997401,0.957332027,0.964620939,1.701665433,1.030653922,0.923684211,0.577713921,0.840397532,0.625074794,0.812161596,0.978434505,0.969465649,1
268,16,17,0.238242383,0.238522205,0.237420324,0.235189975,0.234945395,0.234237684,0.24277152,0.238307246,0.241870093,0.247691276,0.24575213,0.245320726,0.872821792,0.759212606,0.514045551,0.769062148,1.696614156,0.794299035,1.072503357,0.967605634,1.227264348,1.972291725,0.780952381,2.114702989,1.580643863,2.298632866,2.470641678,0.987644788,0.965201465,8
269,12,18,0.325585882,0.325095278,0.324599586,0.319733802,0.319743967,0.319696106,0.323567865,0.323609509,0.323613554,0.333992425,0.332931027,0.3355361,0.953796334,1.71875,0.396920571,1.28006406,1.175031507,1.239654447,1.018085162,1.04352518,0.396180575,1.039749888,1.625,0.659529238,1.111833799,1.213551868,1.182571161,1.003488372,1.014925373,0
270,10,1,0.304579457,0.303211469,0.302972818,0.298770209,0.298638516,0.298998504,0.304450199,0.304506739,0.304510732,0.3092529,0.308345087,0.31126095,0.899517746,0.52084966,0.221584313,1.250866349,0.899607412,0.978347663,0.974407916,0.951754386,2.533271378,1.026781535,0.777777778,1.126117299,0.854991011,0.772708954,0.917113985,0.958653846,0.953917051,7
271,2,2,0.460609314,0.465629869,0.465180098,0.463421961,0.463375796,0.457178482,0.465039608,0.459071505,0.465184398,0.472645168,0.471644544,0.46871433,0.935157956,0.929292929,0.629729377,0.764522253,1.028051229,0.894063743,1.012596933,1.046666667,1.892084902,0.889939721,1.25,1.731487149,1.139670889,1.122524499,0.932726876,1.036,1.03902439,0
272,14,3,0.174478097,0.173578505,0.173296029,0.17275959,0.172766197,0.172981976,0.173795518,0.173975269,0.1737733,0.176640427,0.176095788,0.178212333,0.886880216,0.64380787,0.353059739,0.842672334,0.788350692,2.562834477,0.971951232,0.995305164,7.955890456,0.866043578,1.0,0.478882208,1.032527366,0.76313118,0.713674624,0.994949495,0.995121951,2
273,15,4,0.367198679,0.364305428,0.364078732,0.363970932,0.363774409,0.365595756,0.364547482,0.366082398,0.364477154,0.352126127,0.351270982,0.355864304,0.80286774,0.385921428,0.485959612,1.399591742,0.416524726,0.750473075,0.816806926,0.983486239,1.331579928,0.961994765,0.6,2.681819977,0.327748979,0.126069949,0.393373097,1.04375,1.009661836,5
274,0,5,0.448855598,0.445310702,0.444884327,0.441937816,0.441921675,0.44428937,0.444673584,0.447197978,0.444691148,0.450353631,0.44945822,0.455223056,0.934790584,1.104651163,0.491986646,1.08473629,0.945389089,1.601523074,0.986742721,1.014563107,2.147494784,0.907701116,1.125,0.488208969,0.953261773,0.887507004,0.889561175,1.014358974,1.014925373,1
275,6,6,0.319500363,0.318503393,0.318109115,0.314131311,0.314134557,0.314149325,0.313380012,0.313377126,0.313369449,0.32213783,0.321361404,0.324096609,0.78826194,0.56865942,0.61781314,0.681201445,0.453115843,1.86918137,0.88541823,0.957847534,5.448141664,0.825825668,0.470588235,0.434556619,0.717863987,0.306178352,0.399020706,1.005946482,0.978723404,6
276,17,7,0.316320175,0.313891489,0.313679255,0.311468977,0.311276737,0.312692927,0.313417542,0.314792654,0.313426153,0.321179361,0.320369989,0.324545454,0.904634412,0.705128205,0.633581567,1.204663998,0.957690538,2.75669678,0.989853994,1.007401417,2.135140562,1.007205511,0.833333333,0.213171089,0.972768149,0.907929142,0.957722075,1.00990099,1.014285714,3
277,1,8,0.15354663,0.154490174,0.154246874,0.15289667,0.152901641,0.151366618,0.156339148,0.154648669,0.156346327,0.156323825,0.155833405,0.155771461,0.922723449,0.586680761,0.539156751,1.070824191,0.900636726,1.20840082,0.97450235,0.957771788,1.864928008,0.941125528,0.875,1.138013468,0.894584817,0.777006413,0.866689288,0.969306931,0.966981132,4
278,5,9,0.416658757,0.419149223,0.418715284,0.41679785,0.41678428,0.413135738,0.416386729,0.413007572,0.416470173,0.420892276,0.419994815,0.419790099,0.908418918,0.806818182,0.678852213,1.16323591,0.736690392,1.296358036,0.942323515,0.984112974,2.422817526,0.935793253,0.571428571,0.615085716,0.789446202,0.573944015,0.69535012,1.002851711,0.98630137,8
279,13,10,0.909251768,0.909495375,0.90936547,0.914272986,0.914216123,0.913773935,0.915380607,0.914586008,0.915249276,0.901971887,0.901801531,0.902022879,0.92385463,0.698823529,1.303890731,0.730077499,0.605648392,1.616243001,0.910474705,0.959843291,1.576829073,0.902648688,0.7,0.258271448,0.735637057,0.420024768,0.536911878,0.968586387,0.964285714,6
280,7,11,0.629283736,0.632825236,0.632370345,0.624404219,0.6244579,0.619800489,0.624397203,0.619053811,0.624377696,0.640057441,0.639361593,0.636812845,0.91803519,0.923242468,0.88096343,0.893749242,0.721160828,1.868930739,0.95712604,0.970817121,2.246480062,0.996644716,0.65,0.290643878,0.984255887,0.666655892,0.666419165,0.996342738,0.992385787,7
281,4,12,0.335195468,0.336845969,0.336430524,0.335872906,0.335843993,0.333217414,0.337046195,0.334414817,0.337010497,0.340673385,0.339892294,0.339985845,0.870637876,0.777298137,0.193949942,0.859344892,0.638929629,1.735949186,0.912981504,0.951456311,2.674479544,1.026337039,0.7,0.373081255,0.730607943,0.449152714,0.63593752,0.958974359,0.955,2
282,9,13,0.163842438,0.164879884,0.164612728,0.163220203,0.163238787,0.1615738,0.165456231,0.163760063,0.16545926,0.166697763,0.166187875,0.16621247,0.804353162,0.524179037,0.626148996,0.637143673,0.534820733,3.661832438,0.920828019,1.0,13.07713898,1.011590684,0.6,0.173815528,1.039407641,0.479661442,0.522952125,1.032608696,1.021052632,3
283,3,14,0.359276047,0.356748424,0.356300799,0.353332488,0.353325032,0.35482153,0.356351639,0.357888404,0.356260314,0.362448744,0.361502929,0.366047536,0.897557228,0.971851852,0.828361477,1.083381676,0.723070678,0.559296706,0.934930721,0.96969697,0.437672333,1.002614136,0.875,2.442807505,0.760143301,0.55747565,0.725172626,0.974331551,0.971354167,4
284,8,15,0.197575726,0.196633358,0.196319545,0.193560613,0.193550352,0.193814499,0.196958894,0.197219066,0.196954597,0.202529187,0.201897844,0.204167447,0.859598051,0.670795486,0.605379988,0.813101165,0.607461516,1.427102513,0.908311203,0.958516578,2.187038441,1.103396193,0.6,0.751888217,0.762218629,0.428279236,0.631072696,0.984375,0.979695431,5
285,11,16,0.312084191,0.310973409,0.310461419,0.309751799,0.309825402,0.310065516,0.315200149,0.315276189,0.315237551,0.310717736,0.309855297,0.312538019,0.975670996,1.051964512,0.62976351,0.925527973,1.152340465,2.705273341,1.021849136,1.016494845,1.110881994,1.128971244,1.0,0.309877489,1.070468997,1.206700491,1.23192959,1.016304348,1.015957447,1
286,16,17,0.238069393,0.236968606,0.236668693,0.234386894,0.234352514,0.234692859,0.237904025,0.238306451,0.237919996,0.238639798,0.23791485,0.240533674,0.857886708,0.729895459,0.511571688,0.683507962,0.631493642,2.309256559,0.930773004,0.975609756,2.359838023,0.914297435,0.666666667,0.25842644,0.809970714,0.51104288,0.591728041,1.002105263,0.989847716,8
287,12,18,0.326635065,0.325660941,0.325220889,0.324045745,0.324052583,0.324084526,0.325924563,0.3259402,0.325922595,0.328002937,0.327149173,0.329884631,1.054289017,1.120055982,0.512027018,1.47037928,1.6618368,0.958169844,1.081241869,1.022564103,1.522768531,1.009224063,1.25,1.126440511,1.198420026,2.015781479,1.715804362,1.013978495,1.015789474,0
288,10,1,0.30173942,0.30644334,0.305641669,0.301766826,0.305748128,0.299780141,0.308741876,0.308746786,0.313496275,0.307882432,0.311576941,0.305103697,0.936866473,1.04679803,0.6230224,0.642570921,1.583432618,1.497910257,1.07025187,1.008850915,2.054868197,0.867230912,1.1875,0.706113216,1.115124044,2.20358742,1.452382407,0.998335837,1.009036145,7
289,2,2,0.46770775,0.462856118,0.462356355,0.454900541,0.45479374,0.458396346,0.449995029,0.453266682,0.449914284,0.456382781,0.455255184,0.462132957,0.978250564,0.721049784,0.801574029,0.688787521,1.96837718,1.154113529,1.132544392,0.963810118,0.682831197,0.982154747,1.422222222,1.157268508,2.243372771,4.063686022,1.919133562,0.919246862,0.928437045,0
290,14,3,0.172655559,0.174526178,0.174277066,0.17237228,0.171953707,0.1693627,0.177716029,0.175171477,0.177714974,0.179451458,0.178760334,0.178063234,0.922239325,1.039772727,0.357474228,1.002546283,1.484835139,1.813745459,1.049991491,1.026945789,1.329978654,0.975690693,1.4375,0.601704972,1.193798887,1.706334347,1.4515911,0.95560166,1.02689243,2
291,15,4,0.367234754,0.366266485,0.365335018,0.363279976,0.363601728,0.363440621,0.37021769,0.368311773,0.370385497,0.359207861,0.35819883,0.364037086,0.929379996,0.90060241,0.66458609,0.898841522,1.551446845,2.039088497,1.054742585,0.983243633,0.724186464,1.011001259,2.315789474,0.42805442,1.097921627,1.817710027,1.562330614,0.878512397,0.914282719,5
292,0,5,0.444537603,0.445694231,0.445138719,0.443152967,0.443235085,0.44088065,0.45778264,0.453504289,0.457773793,0.430681832,0.429608721,0.428909784,0.956044623,1.261419753,0.693585089,1.04108353,1.334409466,1.696464853,1.025617717,1.007407407,1.396866621,0.701715938,1.363636364,0.503782053,1.198593374,1.326580703,1.071998454,0.94710963,1.015686275,1
293,6,6,0.318717848,0.321785957,0.321300273,0.320202757,0.318698011,0.314620221,0.328214688,0.322498883,0.326456106,0.317111014,0.314389882,0.312165709,0.887569459,0.733686067,0.616747572,0.826993813,1.104878494,1.020316782,1.006391769,0.949123303,2.013875805,1.006920826,1.113636364,1.144075192,0.969297021,1.073072458,1.117092032,0.909699691,0.939809369,6
294,17,7,0.314448285,0.316493647,0.3158437,0.31414012,0.314428349,0.311308532,0.321489245,0.318117963,0.321791383,0.308600605,0.307572391,0.307236773,0.895315846,0.799492386,0.538622731,0.762672539,0.961633046,2.191380017,1.028906595,0.985708345,11.59772898,1.009942755,1.115384615,0.446553478,1.38167779,1.368677805,0.973627769,0.98832441,0.956692913,3
295,1,8,0.154380074,0.15373072,0.153122749,0.153143762,0.15318559,0.15320019,0.152978297,0.153101765,0.152918133,0.157474099,0.156738638,0.158986639,0.874409851,0.850923483,0.365734365,0.665744587,1.002537406,1.615742102,1.001496328,0.967933668,3.526560425,0.970394361,0.95,0.715717266,1.050450803,1.01629548,0.97797447,0.961844197,0.976368639,4
296,5,9,0.414948408,0.421078305,0.420530834,0.416640567,0.416717735,0.409267935,0.414910372,0.407977107,0.414884027,0.428484653,0.427536298,0.424004777,0.899450594,0.74405749,0.514421849,1.330573428,0.779277668,1.507393549,0.958819699,0.942101152,1.950241936,0.908988809,1.181818182,0.656576569,0.867843446,0.645196946,0.725239931,0.92837551,0.94047619,8
297,13,10,0.912864813,0.912326184,0.912463247,0.918025213,0.91778043,0.918216546,0.916799185,0.912212307,0.916637901,0.907046017,0.906556589,0.917261335,0.986614817,0.817434211,0.741077988,1.163361926,1.099946123,0.603357193,1.003895174,0.982702399,0.338635877,1.005099692,0.983552632,2.562689978,0.908691514,1.042076492,1.184991444,0.980861244,0.975225225,6
298,7,11,0.63630948,0.629509731,0.628980307,0.625761194,0.625020505,0.633499848,0.612998621,0.629188237,0.612888121,0.635538281,0.634265037,0.640824589,0.893368298,0.667588496,0.676556669,0.865762583,0.639286604,1.105719908,0.944427371,0.971573131,1.149722988,0.853799211,0.615384615,0.858924454,0.96607834,0.537407018,0.5523519,1.0225,1.0,7
299,4,12,0.332950648,0.337057687,0.336714011,0.333597984,0.333492781,0.328955014,0.332713216,0.326331589,0.332788692,0.338338838,0.337386432,0.33833737,0.918180826,0.920995671,0.55053107,1.426283762,0.902878819,0.965612634,0.975024516,0.970241973,0.746902772,0.794881312,1.222222222,1.463787337,0.941655819,0.759668745,0.770556313,0.962421447,0.963203463,2
300,9,13,0.164083717,0.165651075,0.165296762,0.163994283,0.164068604,0.161834593,0.164005672,0.162264515,0.164019491,0.165847999,0.165157437,0.165605902,0.847234084,0.692822384,0.427671078,0.81231693,0.845414582,1.739346429,0.980888787,0.993442623,1.152311155,1.172518366,0.791666667,0.511081251,0.880531445,0.810469108,0.943576736,1.015813953,1.004366812,3
301,3,14,0.355211889,0.3573383,0.355845991,0.352763341,0.353600849,0.350424434,0.35494652,0.34626325,0.354955283,0.343677779,0.342521307,0.339786775,0.938641508,0.871,0.533459286,0.565475302,1.315000572,4.837254976,1.05894669,1.065636526,0.920605042,1.129905126,1.208333333,0.089896673,1.441937286,1.879040242,1.405532803,1.036157749,1.066513761,4
302,8,15,0.195549596,0.197915077,0.197538871,0.195605935,0.195663249,0.192565846,0.201303059,0.197042663,0.201303517,0.198717926,0.197817441,0.198406601,0.841603213,0.705882353,0.397261721,0.849947214,0.683560266,3.324363329,0.975712667,1.027355838,4.604437253,1.05277883,0.75,0.235371934,1.10111142,0.762957081,0.710061413,1.053287565,1.020344998,5
303,11,16,0.311321504,0.310325432,0.309895676,0.309040488,0.309045986,0.310975972,0.312295685,0.319945758,0.312379612,0.301209113,0.300150498,0.303968581,0.957383452,0.89254386,0.496652609,0.938233061,1.295284178,1.07444475,1.039192428,0.987772926,1.642459674,1.165515389,1.725,1.313185196,0.963969486,1.503384934,1.428394167,0.911004304,0.971198157,1
304,16,17,0.235791173,0.238373516,0.237931615,0.235042211,0.23506025,0.231566828,0.237006363,0.234701312,0.23698654,0.238886213,0.238085634,0.235100514,0.867281761,0.557291667,0.522136336,0.828169704,0.792731773,0.726284062,0.951810525,0.942386831,0.948061742,1.055570932,0.976190476,2.637667522,0.686980285,0.601358023,0.828548558,0.944444444,0.930735931,8
305,12,18,0.323582676,0.327930398,0.327514699,0.323191059,0.323162407,0.317761358,0.324414579,0.322723823,0.324417052,0.329512161,0.32856732,0.328938619,0.933861672,0.703504043,0.681953141,1.018551986,1.331957051,1.506160916,1.021331614,0.955822641,0.844237054,1.145973627,0.925,0.875437068,0.855411129,1.250856625,1.466617415,0.927523607,0.963169643,0
306,10,1,0.30558501,0.30460154,0.304099489,0.301225712,0.301196153,0.301360676,0.306726787,0.306700597,0.306740653,0.306339971,0.305336116,0.30821063,0.943480326,1.103225806,0.717827918,0.993373117,0.982604348,2.935393097,1.038029959,1.040697674,10.78693247,0.751493946,1.291666667,0.283930289,1.490659211,1.425015932,0.834697289,1.042378269,1.037650602,7
307,2,2,0.464002263,0.460437987,0.459848564,0.456123015,0.456117499,0.458815737,0.457688211,0.459394937,0.457638736,0.46769883,0.466532155,0.473319688,0.931589304,0.913865546,0.6149723,0.782099617,1.182054438,1.77240512,1.125963337,0.99265144,6.347382281,1.280096401,0.977777778,0.616890431,3.632963852,3.914336226,1.392576709,1.005988024,0.99301676,0
308,14,3,0.174438724,0.173744136,0.173388517,0.171362894,0.171373996,0.171538193,0.174473293,0.174990615,0.174468792,0.176400355,0.175720069,0.177629833,0.862663662,0.559229972,0.581990393,1.251763481,0.951553964,2.291520169,0.994316085,1.006828327,6.160657053,1.019253907,1.0,0.758623442,1.047126498,0.946436038,0.956720429,1.023255814,1.016483516,2
309,15,4,0.363815351,0.367277536,0.366587874,0.365243686,0.365384843,0.361011297,0.365124503,0.363321467,0.365111204,0.369075113,0.367961156,0.369723149,0.956994777,0.880851064,0.671448562,1.359849822,1.137644287,0.948060422,1.034237559,1.058510638,1.263952708,0.905272746,1.0,1.300432182,1.157298426,1.381086457,1.081258866,1.058823529,1.072439479,5
310,0,5,0.443507951,0.44760369,0.447099433,0.445235673,0.445163551,0.440144673,0.444781213,0.440521259,0.444798985,0.460564489,0.459375362,0.459319532,1.017554877,1.447431922,0.656366843,0.978871425,1.363325916,1.654711039,1.05367026,1.026041667,1.677864764,1.097071534,1.416666667,0.555232234,1.056302834,1.67072619,1.453674231,1.0,1.002688172,1
311,6,6,0.318074479,0.320397744,0.319859493,0.317590854,0.317627878,0.314466721,0.318558792,0.315836295,0.318489879,0.318131841,0.317049467,0.316828375,0.874902718,0.601028074,0.558050363,1.256455389,0.817073173,1.854441893,0.987424069,1.102702703,3.086744732,0.999022821,0.795454545,0.711669781,1.152818326,0.881427183,0.814567027,1.15443038,1.119942197,6
312,17,7,0.315179813,0.318651474,0.31812887,0.316253585,0.316250346,0.311848986,0.314677381,0.31041322,0.314670245,0.317917057,0.31686161,0.315447375,0.897275805,0.874538177,0.617729733,1.010965045,0.826018371,1.287935711,0.965586692,0.961711712,4.523253151,0.793045812,0.91503268,1.155056103,0.831610744,0.703075392,0.728766415,0.9725,0.964580824,3
313,1,8,0.152944735,0.154385738,0.154070778,0.151288268,0.15128406,0.149290797,0.157389094,0.155263966,0.157255956,0.1589727,0.158265118,0.157958698,0.895859482,0.722795255,0.417211059,0.844960167,0.97498097,2.387453651,1.091682639,1.143298969,17.52786283,1.170565614,1.05,0.513128202,3.553637205,2.892469874,0.97466045,1.166470588,1.164835165,4
314,5,9,0.422089782,0.419029105,0.418457256,0.416542337,0.416531033,0.418603385,0.419899967,0.422780202,0.419744162,0.41511769,0.413896612,0.420681252,1.018939684,0.900591205,0.812778074,0.731070898,1.60776459,1.182183363,1.164794534,0.959798995,0.917524648,1.026018849,1.416666667,0.805673567,4.167531998,7.019469255,1.501805446,0.922910969,0.939790576,8
315,13,10,0.90586585,0.916105904,0.915891153,0.917877261,0.917879697,0.907042922,0.903522679,0.88022622,0.903367485,0.9361394,0.935810153,0.922486809,0.992251291,0.974025974,1.154927007,0.953431404,1.203312131,0.911543085,1.048636217,1.033121402,1.704130503,1.175310912,1.111111111,1.335862292,1.39693314,1.631230933,1.311434832,1.00441989,0.988267651,6
316,7,11,0.631436304,0.635419218,0.63503099,0.630901489,0.630741396,0.625693572,0.623965267,0.618106045,0.623952936,0.675842008,0.67489867,0.66657754,0.934490414,1.002136752,0.868739349,1.404734019,0.739069772,1.343202615,0.927973319,0.996906132,0.992116231,1.048854403,0.831034483,0.819218925,0.608912848,0.416749226,0.743472979,1.028703175,0.963179869,7
317,4,12,0.335730639,0.333862383,0.332980333,0.331380744,0.331687564,0.332558643,0.324343262,0.325205851,0.324330959,0.341728857,0.340595992,0.346580303,0.936170963,0.929577465,0.676168379,1.521140306,1.246507593,1.678550144,1.017367222,0.93826087,0.455370615,0.947007236,1.45,0.67315925,0.902048346,1.198718593,1.211026271,0.851727626,0.931192661,2
318,9,13,0.16487266,0.163904735,0.16356265,0.161803643,0.161801919,0.162197535,0.166857546,0.167156407,0.166847661,0.165063271,0.164381195,0.16679015,0.820913969,0.525138889,0.515937683,0.978275269,0.629029587,4.318362508,0.968265777,0.985849057,52.57834312,1.378890906,0.641025641,0.556055853,1.246028021,0.718097653,0.74667655,1.072625698,1.010050251,3
319,3,14,0.357675566,0.35674928,0.356209112,0.35093681,0.355871475,0.3565836,0.349752868,0.356593867,0.354612965,0.366433671,0.369991095,0.368122081,0.963592968,1.046954315,0.568036227,0.876529536,1.054040817,0.937556146,1.00829466,0.917431368,1.821844659,1.155669983,1.238095238,1.304213895,1.125218468,1.085484516,1.130576266,0.887323944,0.918181818,4
320,8,15,0.197286942,0.196270698,0.19585233,0.194756888,0.194782365,0.19541059,0.198515011,0.199411575,0.198468158,0.197305148,0.196466534,0.199104669,0.844516363,0.60896164,0.651892383,0.918215029,0.794903576,1.811131322,1.00910323,0.984474886,12.89532174,0.857309788,0.65530303,0.632300947,1.679240252,1.222405831,0.677096847,1.044858215,1.003623188,5
321,11,16,0.309518301,0.312483675,0.311971527,0.308562213,0.308549024,0.304668603,0.31777433,0.312225484,0.317807121,0.313655299,0.312583956,0.313282187,0.985886029,0.784354226,0.533687537,1.224315715,1.95587466,1.406962195,1.127115662,1.013636364,1.056185689,1.057896566,1.5,0.91939698,1.608504095,3.81267589,2.041042979,0.975609756,1.009433962,1
322,16,17,0.235045216,0.236705315,0.236250601,0.234244565,0.234240983,0.231764389,0.235833178,0.23363135,0.235746593,0.235442884,0.23453217,0.234822891,0.869059945,0.595572057,0.548009282,1.05357728,0.990981894,0.845992064,1.05490096,0.984782609,15.83989691,0.991466366,0.668181818,3.993792149,1.766012195,1.768212809,0.984540375,1.027033227,1.00456621,8
323,12,18,0.325620126,0.327552865,0.326990838,0.325436304,0.325457132,0.322590634,0.331662464,0.329004917,0.33168185,0.333668672,0.33259231,0.332585446,1.049253149,1.283333333,0.388905114,1.152506889,2.073835006,0.478825449,1.084956162,1.03030303,0.79328748,1.055537048,2.333333333,5.159257626,1.069762247,2.310196421,2.124671783,0.925233645,0.970922085,0
324,10,1,0.305964045,0.303693154,0.30333513,0.299320577,0.298926637,0.300211626,0.301974019,0.301748867,0.30202094,0.309640027,0.308551785,0.310974806,0.995424261,0.93482906,0.705316914,0.853881302,1.172695549,0.87712153,1.035317303,1.013901345,0.639809286,1.220438428,1.191666667,1.437621346,1.08689058,1.399092799,1.343267511,0.993820377,0.997695853,7
325,2,2,0.462791005,0.461691766,0.460725283,0.457982773,0.458288076,0.458253511,0.461548641,0.462004454,0.461437402,0.471259462,0.469933469,0.472331509,0.841653855,0.657624633,0.473751307,0.95924061,0.51728247,2.122651286,0.920790176,0.999111901,6.557821276,1.314033146,0.5,0.160341495,0.962131827,0.447591372,0.591685702,1.064676617,1.020887166,0
326,14,3,0.173317968,0.175096335,0.174808209,0.173938298,0.173810396,0.171370457,0.17617046,0.173666148,0.176028893,0.180865184,0.180136656,0.179677068,0.872291693,0.594909272,0.518166678,1.031501297,0.753140077,3.566730724,0.943770817,0.954918033,2.605081048,0.878854716,1.0625,0.138884699,0.78701828,0.569638562,0.693260517,0.955803571,0.948497854,2
327,15,4,0.364724366,0.363685855,0.363255114,0.359040155,0.358872691,0.35883526,0.358241881,0.358205414,0.358234461,0.368081398,0.367027348,0.370204248,0.980996228,1.014119601,0.541150991,0.962222252,1.381596428,0.714817804,1.04021966,0.950498777,0.50567562,1.316778226,1.142857143,1.837248955,0.980657926,1.493466015,1.643843738,0.936440678,0.949795082,5
328,0,5,0.441850743,0.447598695,0.447115453,0.441304418,0.441222525,0.434345778,0.4438007,0.436654101,0.443947906,0.45134895,0.4502244,0.446435155,0.948713748,0.848809524,0.465013329,1.001415643,1.102611774,0.78850162,1.00885979,1.007056365,0.89832385,1.120833649,1.029411765,1.481811614,1.033202663,1.095944979,1.173469844,1.00042735,1.005097884,1
329,6,6,0.318505702,0.317520883,0.317432302,0.316901531,0.316247301,0.31625493,0.318663772,0.318556238,0.318574218,0.327111422,0.326117138,0.329035813,0.863649211,0.577220077,0.51062179,1.481074268,0.933197426,1.39195001,0.975722557,0.908,1.652118757,0.942826774,0.846153846,0.704953656,0.798538007,0.770439977,0.909838022,0.901632653,0.903846154,6
330,17,7,0.312642082,0.3164703,0.316059479,0.311649057,0.311660111,0.306806776,0.315756967,0.311063389,0.31554075,0.328535617,0.327574017,0.325731457,0.974095394,1.5,0.570585615,0.813395026,1.412273628,1.065844302,1.010114434,0.951731761,0.112781855,1.007736209,1.272727273,0.979282712,0.792230448,1.113267113,1.43457043,0.909387755,0.930769231,3
331,1,8,0.154367813,0.153784243,0.153303317,0.152809521,0.152987155,0.152992951,0.158390591,0.158445756,0.158433567,0.150953855,0.150360697,0.152108686,0.871943702,0.642133816,0.406399985,0.783244331,0.847822896,2.362296296,0.959984203,0.89298893,6.927540777,1.006192483,0.846153846,0.46464704,0.738159003,0.645124884,0.852978121,0.880753138,0.907843137,4
332,5,9,0.416948642,0.419326061,0.418823652,0.416113967,0.416072012,0.412562759,0.4167141,0.413226368,0.416699183,0.428361562,0.427467034,0.427150005,0.916878995,0.986607143,0.58547137,1.132542802,1.025313151,1.350435986,0.993305674,0.911745928,1.907074719,1.131266303,1.106884058,0.61670905,0.887849105,0.930070485,1.10793694,0.886647986,0.889312977,8
333,13,10,0.918187733,0.904158602,0.904225439,0.901274369,0.90128909,0.915139214,0.909080231,0.923489652,0.908726651,0.890861938,0.890859865,0.906070212,0.959356333,0.738095238,1.319725582,1.099046,1.333305019,0.891275874,1.016149961,0.970277753,0.762192316,0.547509533,0.711538462,1.267784745,0.788988505,1.302313799,0.851519608,0.982183472,0.965980277,6
334,7,11,0.628393324,0.635430344,0.635450661,0.625207153,0.635153605,0.626944721,0.637120682,0.64057659,0.647792097,0.629743061,0.639403724,0.624671063,0.907359241,1.014456929,0.610239911,0.652494917,0.727199383,1.126273883,0.944969442,0.968267088,1.582710245,0.8574555,0.566287879,0.768760631,0.752475617,0.561590255,0.655034702,1.0,0.977903869,7
335,4,12,0.334183831,0.333051747,0.332050553,0.328392078,0.328915296,0.328922742,0.333742902,0.33378207,0.333771816,0.337525098,0.336038782,0.339745838,0.825147716,0.464496588,0.432708987,0.705224586,0.524524426,1.064854976,0.885810601,0.930232558,0.873244539,0.825234869,0.5,1.256387993,0.560876154,0.28602072,0.459837096,0.970211674,0.940350877,2
336,9,13,0.164066949,0.165738339,0.165522567,0.164648338,0.164544,0.162136577,0.169696196,0.167582548,0.169777014,0.159561495,0.158832619,0.161217829,0.871276033,0.664764099,0.514609611,1.19880402,1.63900044,0.952997522,1.037848929,0.956055363,1.53376166,1.003864038,1.15,1.591495184,0.91209935,1.52694471,1.647561555,0.888518939,0.944347748,3
337,3,14,0.354839452,0.358667974,0.357837482,0.356004452,0.356337465,0.351327763,0.366083574,0.360832411,0.366152076,0.351436339,0.350157677,0.348783615,0.939663919,0.884101382,0.583636372,0.880923277,1.576563808,0.993932456,1.036730526,0.979681677,0.158679561,1.29193016,2.314615385,1.254093936,0.970140109,1.510693916,1.832592594,0.84351145,0.922314125,4
338,8,15,0.195511737,0.196671556,0.196373439,0.195669095,0.194818238,0.192855913,0.199810645,0.196844283,0.199101439,0.207175063,0.205566292,0.206286443,0.880653984,0.974729242,0.432152372,1.342068113,1.256338292,0.57454068,0.996267863,0.939273927,0.410919565,1.304925974,1.679166667,3.459346153,0.720141975,0.957634351,1.477702981,0.838867925,0.9204947,5
339,11,16,0.310065146,0.311490586,0.311154115,0.30968839,0.309609984,0.307083287,0.31479582,0.312326304,0.314744154,0.315730203,0.314566253,0.315267951,0.913786189,1.008333333,0.647196089,1.41598731,1.230933193,1.084224175,0.995222814,0.935991957,0.669817034,1.16266831,1.340909091,1.659185524,0.817470676,0.948933534,1.34191104,0.9091586,0.93683274,1
